ecg_v1
0.243
0.215
0.17600000000000002
0.145
0.128
0.125
0.131
0.125
0.17250000000000001
0.439
0.83
1.24
0.3805
-0.184
-0.004
0.086
0.118
0.121
0.115
0.111
0.123
0.125
0.131
0.135
0.14
0.15
0.156
0.16
0.161
0.166
0.17
0.17600000000000002
0.195
0.21100000000000002
0.225
0.24
0.2655
0.295
0.295
0.285
0.26
0.23
0.21100000000000002
0.195
0.178
0.17
0.17
0.17600000000000002
0.17600000000000002
0.166
0.166
0.17
0.178
0.17600000000000002
0.16
0.156
0.171
0.17
0.17
0.166
0.16
0.166
0.17
0.17600000000000002
0.17300000000000001
0.16
0.16
0.166
0.168
0.16
0.16
0.17
0.17300000000000001
0.17
0.166
0.16
0.166
0.166
0.17
0.16
0.158
0.166
0.16
0.17
0.20350000000000001
0.25
0.24600000000000002
0.285
0.333
0.305
0.29100000000000004
0.25
0.20800000000000002
0.16
0.125
0.111
0.108
0.105
0.105
0.125
0.34550000000000003
0.8690000000000001
1.209
0.67
-0.14250000000000002
-0.025
0.064
0.096
0.098
0.1
0.096
0.1
0.121
0.125
0.125
0.121
0.131
0.145
0.15
0.15
0.163
0.17
0.17600000000000002
0.18899999999999997
0.201
0.215
0.23399999999999999
0.24600000000000002
0.2675
0.27899999999999997
0.27899999999999997
0.27
0.245
0.21100000000000002
0.195
0.17600000000000002
0.17600000000000002
0.17600000000000002
0.17
0.18600000000000003
0.171
0.17600000000000002
0.17600000000000002
0.17600000000000002
0.17800000000000002
0.195
0.18600000000000003
0.18899999999999997
0.158
0.17600000000000002
0.17600000000000002
0.17600000000000002
0.17600000000000002
0.17
0.166
0.17
0.168
0.166
0.156
0.166
0.171
0.16
0.17
0.17
0.17300000000000001
0.166
0.16
0.166
0.178
0.17600000000000002
0.17600000000000002
0.17600000000000002
0.17800000000000002
0.17600000000000002
0.201
0.24
0.268
0.314
0.34
0.33
0.3095
0.266
0.25
0.21100000000000002
0.158
0.145
0.141
0.15
0.133
0.17600000000000002
0.34
0.66
1.2325
0.42
-0.16
-0.18899999999999997
0.0655
0.125
0.131
0.135
0.128
0.145
0.15
0.16
0.168
0.17600000000000002
0.17
0.17
0.1875
0.17600000000000002
0.17600000000000002
0.18899999999999997
0.203
0.21100000000000002
0.221
0.23
0.245
0.275
0.295
0.305
0.29
0.27899999999999997
0.266
0.23399999999999999
0.21100000000000002
0.201
0.18899999999999997
0.195
0.1825
0.17600000000000002
0.18
0.18
0.1875
0.18899999999999997
0.18600000000000003
0.18600000000000003
0.183
0.18899999999999997
0.17600000000000002
0.18
0.18899999999999997
0.17600000000000002
0.17
0.17
0.17300000000000001
0.18
0.17
0.166
0.17600000000000002
0.17
0.17600000000000002
0.17
0.17300000000000001
0.17
0.17
0.17
0.178
0.17600000000000002
0.18600000000000003
0.17600000000000002
0.18
0.18
0.17600000000000002
0.18
0.21000000000000002
0.26
0.266
0.256
0.33999999999999997
0.33
0.311
0.27899999999999997
0.248
0.205
0.156
0.145
0.135
0.135
0.131
0.125
0.3055
0.799
1.264
0.965
-0.052
-0.055
0.061
0.111
0.11599999999999999
0.105
0.105
0.111
0.126
0.131
0.131
0.135
0.135
0.141
0.15
0.156
0.161
0.17
0.17600000000000002
0.18
0.1955
0.23
0.24600000000000002
0.256
0.27749999999999997
0.29100000000000004
0.29100000000000004
0.275
0.258
0.225
0.205
0.195
0.1905
0.18600000000000003
0.18
0.18
0.18600000000000003
0.18600000000000003
0.18
0.18899999999999997
0.1875
0.18600000000000003
0.18899999999999997
0.18899999999999997
0.18899999999999997
0.18899999999999997
0.18600000000000003
0.18600000000000003
0.183
0.18600000000000003
0.18
0.17600000000000002
0.17600000000000002
0.17600000000000002
0.17600000000000002
0.18
0.183
0.18600000000000003
0.18899999999999997
0.195
0.18899999999999997
0.18600000000000003
0.18899999999999997
0.18899999999999997
0.195
0.195
0.18899999999999997
0.18600000000000003
0.1905
0.18899999999999997
0.205
0.23
0.2705
0.266
0.324
0.359
0.343
0.301
0.266
0.24
0.1955
0.15
0.141
0.135
0.138
0.125
0.18
0.324
0.864
1.254
0.34600000000000003
-0.193
-0.0245
0.105
0.115
0.111
0.123
0.125
0.125
0.131
0.133
0.141
0.145
0.145
0.153
0.166
0.16
0.166
0.175
0.18899999999999997
0.201
0.21100000000000002
0.22949999999999998
0.256
0.27
0.295
0.29600000000000004
0.275
0.266
0.24600000000000002
0.22050000000000003
0.195
0.17600000000000002
0.17600000000000002
0.17600000000000002
0.18
0.17600000000000002
0.17600000000000002
0.17600000000000002
0.18
0.17600000000000002
0.17600000000000002
0.17600000000000002
0.17600000000000002
0.17600000000000002
0.18
0.17300000000000001
0.17600000000000002
0.17
0.166
0.17300000000000001
0.16
0.17
0.166
0.16
0.17
0.17
0.16
0.165
0.17
0.166
0.17
0.17300000000000001
0.18
0.18600000000000003
0.17600000000000002
0.17300000000000001
0.17600000000000002
0.17
0.17600000000000002
0.1935
0.215
0.24
0.25
0.277
0.355
0.336
0.311
0.25
0.225
0.18
0.135
0.135
0.121
0.115
0.115
0.147
0.359
0.6890000000000001
1.16
0.7405
-0.209
-0.1
0.031
0.10550000000000001
0.105
0.111
0.105
0.118
0.121
0.125
0.145
0.138
0.15
0.156
0.15
0.163
0.16
0.17
0.17600000000000002
0.1845
0.205
0.215
0.221
0.25
0.27899999999999997
0.301
0.295
0.258
0.225
0.215
0.205
0.1795
0.16
0.16
0.156
0.158
0.16
0.156
0.16
0.171
0.166
0.16
0.16
0.163
0.16
0.166
0.17
0.165
0.17
0.16
0.15
0.158
0.156
0.16
0.15
0.161
0.156
0.15
0.16
0.161
0.16
0.156
0.166
0.168
0.166
0.17600000000000002
0.166
0.163
0.17
0.17600000000000002
0.205
0.243
0.26
0.314
0.336
0.306
0.275
0.225
0.205
0.1575
0.131
0.121
0.111
0.123
0.111
0.201
0.395
1.008
0.9590000000000001
0.145
-0.225
-0.029500000000000002
0.08
0.096
0.096
0.098
0.105
0.105
0.115
0.108
0.115
0.125
0.131
0.131
0.145
0.15
0.145
0.15
0.166
0.17600000000000002
0.18600000000000003
0.203
0.225
0.24600000000000002
0.266
0.27
0.266
0.24600000000000002
0.221
0.195
0.18
0.166
0.156
0.158
0.166
0.166
0.17
0.163
0.166
0.17600000000000002
0.17600000000000002
0.17600000000000002
0.17600000000000002
0.17
0.17600000000000002
0.17300000000000001
0.17
0.166
0.15
0.16
0.17
0.17600000000000002
0.16
0.161
0.166
0.166
0.156
0.165
0.17
0.17600000000000002
0.17600000000000002
0.17
0.17600000000000002
0.17
0.17600000000000002
0.178
0.17600000000000002
0.17
0.17600000000000002
0.1825
0.225
0.256
0.25
0.3205
0.35
0.33
0.311
0.256
0.221
0.18
0.15
0.131
0.135
0.135
0.141
0.1795
0.439
0.8440000000000001
1.264
0.4
-0.19899999999999998
-0.02
0.07
0.111
0.115
0.121
0.115
0.128
0.131
0.135
0.145
0.1475
0.156
0.15
0.16
0.166
0.17
0.18
0.18600000000000003
0.195
0.21100000000000002
0.225
0.24600000000000002
0.27249999999999996
0.301
0.305
0.295
0.27249999999999996
0.24600000000000002
0.221
0.205
0.203
0.18600000000000003
0.17600000000000002
0.18
0.195
0.201
0.195
0.18600000000000003
0.1875
0.195
0.18600000000000003
0.18899999999999997
0.201
0.201
0.18600000000000003
0.18
0.18
0.17600000000000002
0.17600000000000002
0.17
0.18600000000000003
0.18
0.17600000000000002
0.17600000000000002
0.17600000000000002
0.17
0.17600000000000002
0.17600000000000002
0.178
0.17600000000000002
0.18
0.17600000000000002
0.183
0.18899999999999997
0.195
0.18600000000000003
0.183
0.18600000000000003
0.18600000000000003
0.195
0.25949999999999995
0.27
0.301
0.34
0.33999999999999997
0.32
0.27899999999999997
0.26
0.21449999999999997
0.156
0.145
0.135
0.138
0.135
0.131
0.225
0.5695000000000001
1.215
0.955
0.125
-0.124
0.061
0.105
0.115
0.118
0.131
0.125
0.131
0.123
0.135
0.15
0.156
0.153
0.166
0.166
0.16
0.171
0.18899999999999997
0.201
0.21100000000000002
0.223
0.23399999999999999
0.256
0.27899999999999997
0.295
0.295
0.285
0.266
0.22949999999999998
0.215
0.201
0.195
0.1905
0.17600000000000002
0.17600000000000002
0.17600000000000002
0.1825
0.201
0.18
0.18
0.183
0.18
0.17600000000000002
0.18
0.17600000000000002
0.18899999999999997
0.18
0.17600000000000002
0.17300000000000001
0.18600000000000003
0.17600000000000002
0.156
0.178
0.17600000000000002
0.17600000000000002
0.17
0.168
0.18
0.18600000000000003
0.17600000000000002
0.17300000000000001
0.17600000000000002
0.17600000000000002
0.17600000000000002
0.1875
0.18600000000000003
0.18
0.17600000000000002
0.1885
0.24
0.27
0.256
0.3305
0.355
0.336
0.301
0.248
0.215
0.18
0.16
0.1475
0.15
0.15
0.135
0.23049999999999998
0.545
1.02
1.244
0.2675
-0.19899999999999998
-0.004
0.086
0.118
0.105
0.115
0.125
0.128
0.141
0.15
0.15
0.158
0.16
0.16
0.166
0.17600000000000002
0.18
0.18600000000000003
0.18600000000000003
0.2
0.221
0.23399999999999999
0.24600000000000002
0.27249999999999996
0.301
0.305
0.295
0.2625
0.23399999999999999
0.221
0.201
0.1875
0.17600000000000002
0.18
0.18899999999999997
0.18
0.17600000000000002
0.18600000000000003
0.18
0.183
0.18
0.195
0.201
0.1875
0.18899999999999997
0.18899999999999997
0.18899999999999997
0.18
0.18600000000000003
0.18600000000000003
0.18
0.178
0.17600000000000002
0.17600000000000002
0.17600000000000002
0.18600000000000003
0.18
0.18899999999999997
0.18899999999999997
0.183
0.17600000000000002
0.17600000000000002
0.18
0.183
0.18
0.18600000000000003
0.18
0.18600000000000003
0.195
0.18899999999999997
0.225
0.268
0.266
0.34
0.359
0.335
0.295
0.26
0.24600000000000002
0.1875
0.15
0.145
0.15
0.143
0.125
0.18899999999999997
0.371
0.9650000000000001
1.2790000000000001
0.23
-0.19899999999999998
-0.0015000000000000013
0.105
0.115
0.115
0.123
0.121
0.131
0.131
0.138
0.141
0.15
0.15
0.153
0.156
0.166
0.17600000000000002
0.178
0.18600000000000003
0.195
0.201
0.2255
0.256
0.275
0.285
0.295
0.285
0.27
0.24600000000000002
0.21800000000000003
0.195
0.17600000000000002
0.18
0.17600000000000002
0.17600000000000002
0.17
0.17600000000000002
0.171
0.17
0.17600000000000002
0.18
0.17600000000000002
0.18
0.17600000000000002
0.166
0.17
0.17600000000000002
0.17600000000000002
0.17600000000000002
0.168
0.16
0.16
0.166
0.178
0.17
0.166
0.17
0.178
0.17600000000000002
0.17600000000000002
0.17600000000000002
0.17
0.17
0.17600000000000002
0.17600000000000002
0.183
0.17600000000000002
0.17600000000000002
0.17600000000000002
0.18100000000000002
0.215
0.25
0.27
0.29300000000000004
0.359
0.336
0.314
0.2755
0.24
0.205
0.166
0.145
0.145
0.141
0.145
0.14850000000000002
0.295
0.551
1.004
0.8700000000000001
-0.139
-0.193
0.02
0.10350000000000001
0.115
0.121
0.125
0.125
0.131
0.141
0.145
0.15
0.156
0.166
0.17
0.17600000000000002
0.17
0.18899999999999997
0.201
0.195
0.205
0.225
0.24600000000000002
0.265
0.285
0.295
0.295
0.2805
0.256
0.225
0.205
0.195
0.18899999999999997
0.18
0.17600000000000002
0.17600000000000002
0.17600000000000002
0.18899999999999997
0.18
0.17600000000000002
0.18
0.18899999999999997
0.18
0.18600000000000003
0.18899999999999997
0.17600000000000002
0.17600000000000002
0.18
0.17600000000000002
0.16
0.17
0.17300000000000001
0.17
0.17600000000000002
0.16
0.168
0.17600000000000002
0.17
0.17600000000000002
0.1875
0.18
0.17
0.16
0.1825
0.17600000000000002
0.17600000000000002
0.18
0.183
0.18899999999999997
0.18
0.18600000000000003
0.1955
0.24600000000000002
0.26
0.256
0.3255
0.336
0.32
0.29100000000000004
0.242
0.205
0.166
0.145
0.133
0.131
0.131
0.131
0.2385
0.59
1.07
1.254
0.202
-0.215
0.0
0.076
0.10550000000000001
0.115
0.121
0.115
0.118
0.131
0.141
0.145
0.14
0.15
0.16
0.17
0.168
0.166
0.17600000000000002
0.17600000000000002
0.18
0.201
0.201
0.221
0.256
0.275
0.275
0.27899999999999997
0.25
0.215
0.201
0.18
0.171
0.166
0.16
0.166
0.166
0.166
0.166
0.16
0.163
0.17
0.16
0.166
0.16
0.16
0.16
0.16
0.155
0.156
0.156
0.156
0.1475
0.145
0.156
0.16
0.15
0.156
0.15
0.15
0.153
0.156
0.156
0.16
0.16
0.16
0.166
0.166
0.163
0.166
0.17600000000000002
0.18899999999999997
0.23550000000000001
0.24600000000000002
0.27899999999999997
0.33
0.325
0.301
0.24600000000000002
0.221
0.1755
0.131
0.125
0.121
0.123
0.111
0.131
0.24600000000000002
0.685
1.285
0.779
-0.013999999999999999
-0.114
0.055
0.1
0.096
0.10250000000000001
0.105
0.105
0.115
0.113
0.125
0.131
0.131
0.135
0.141
0.15
0.156
0.153
0.16
0.166
0.17600000000000002
0.1905
0.215
0.23
0.256
0.27
0.27
0.26
0.24
0.20800000000000002
0.18
0.17600000000000002
0.17
0.17300000000000001
0.166
0.166
0.17600000000000002
0.17300000000000001
0.166
0.166
0.156
0.158
0.17
0.17600000000000002
0.17
0.163
0.17
0.166
0.156
0.153
0.16
0.166
0.166
0.165
0.16
0.16
0.16
0.161
0.17600000000000002
0.17600000000000002
0.17600000000000002
0.178
0.17600000000000002
0.17600000000000002
0.17600000000000002
0.17600000000000002
0.17600000000000002
0.18600000000000003
0.18
0.18
0.18600000000000003
0.21100000000000002
0.24600000000000002
0.265
0.305
0.355
0.365
0.327
0.266
0.24
0.221
0.16499999999999998
0.15
0.15
0.141
0.136
0.145
0.24600000000000002
0.461
1.0594999999999999
0.785
-0.004
-0.184
0.048
0.125
0.121
0.125
0.128
0.135
0.141
0.145
0.153
0.16
0.17600000000000002
0.17
0.17600000000000002
0.18600000000000003
0.18899999999999997
0.18600000000000003
0.195
0.205
0.221
0.225
0.256
0.285
0.301
0.314
0.317
0.295
0.275
0.266
0.24
0.215
0.201
0.195
0.201
0.201
0.201
0.201
0.201
0.201
0.201
0.201
0.1875
0.18899999999999997
0.195
0.18899999999999997
0.1905
0.195
0.18899999999999997
0.18600000000000003
0.178
0.18
0.18
0.18
0.183
0.17600000000000002
0.18600000000000003
0.18899999999999997
0.17600000000000002
0.18600000000000003
0.18899999999999997
0.18
0.1875
0.18600000000000003
0.18899999999999997
0.18
0.183
0.18899999999999997
0.195
0.195
0.192
0.225
0.266
0.275
0.28700000000000003
0.355
0.34
0.33
0.2825
0.24
0.205
0.17
0.15
0.145
0.145
0.145
0.15050000000000002
0.305
0.6
1.07
0.84
-0.14800000000000002
-0.18899999999999997
0.02
0.1105
0.131
0.131
0.125
0.131
0.141
0.135
0.15
0.15
0.156
0.17
0.17
0.178
0.17600000000000002
0.17600000000000002
0.17600000000000002
0.2
0.221
0.221
0.23399999999999999
0.255
0.27899999999999997
0.295
0.301
0.28
0.24
0.225
0.21100000000000002
0.1845
0.17600000000000002
0.17600000000000002
0.17600000000000002
0.17300000000000001
0.17600000000000002
0.17600000000000002
0.18
0.17300000000000001
0.17
0.17
0.17600000000000002
0.18
0.17600000000000002
0.17600000000000002
0.166
0.17300000000000001
0.16
0.166
0.16
0.165
0.15
0.16
0.17
0.163
0.16
0.17
0.17600000000000002
0.165
0.156
0.16
0.166
0.171
0.18
0.17600000000000002
0.18
0.1795
0.18
0.215
0.25
0.258
0.33
0.355
0.336
0.3045
0.24600000000000002
0.23
0.195
0.1505
0.131
0.121
0.125
0.138
0.21100000000000002
0.375
0.73
1.2565
0.266
-0.19899999999999998
-0.094
0.078
0.121
0.111
0.115
0.126
0.135
0.141
0.141
0.15
0.16
0.16
0.17
0.18100000000000002
0.17600000000000002
0.18
0.18600000000000003
0.198
0.215
0.221
0.215
0.247
0.285
0.301
0.301
0.29
0.27
0.256
0.24
0.21800000000000003
0.201
0.195
0.201
0.1875
0.195
0.17600000000000002
0.17600000000000002
0.1875
0.18
0.18600000000000003
0.195
0.1875
0.18
0.17600000000000002
0.17600000000000002
0.178
0.17600000000000002
0.17
0.17600000000000002
0.18
0.17600000000000002
0.18
0.17600000000000002
0.17600000000000002
0.17
0.17600000000000002
0.18
0.178
0.17600000000000002
0.18
0.18
0.178
0.18600000000000003
0.18600000000000003
0.17600000000000002
0.168
0.18
0.201
0.225
0.258
0.285
0.336
0.355
0.332
0.27899999999999997
0.25
0.225
0.1805
0.145
0.141
0.131
0.135
0.131
0.221
0.40399999999999997
1.0370000000000001
1.0
0.141
-0.205
0.0075
0.105
0.115
0.125
0.12
0.121
0.131
0.135
0.138
0.141
0.145
0.156
0.165
0.17600000000000002
0.17600000000000002
0.17600000000000002
0.18100000000000002
0.195
0.201
0.215
0.23249999999999998
0.25
0.275
0.295
0.303
0.29100000000000004
0.275
0.256
0.2225
0.201
0.18600000000000003
0.18600000000000003
0.183
0.18899999999999997
0.18600000000000003
0.18600000000000003
0.18899999999999997
0.18600000000000003
0.17600000000000002
0.18600000000000003
0.1845
0.18600000000000003
0.17600000000000002
0.17600000000000002
0.178
0.166
0.18
0.18
0.17300000000000001
0.17600000000000002
0.166
0.17
0.168
0.17
0.17600000000000002
0.17600000000000002
0.168
0.17600000000000002
0.17600000000000002
0.17600000000000002
0.178
0.18
0.17600000000000002
0.17
0.183
0.18
0.18
0.195
0.2385
0.27
0.25
0.33
0.34950000000000003
0.33
0.27899999999999997
0.24600000000000002
0.21250000000000002
0.15
0.135
0.131
0.131
0.131
0.121
0.18
0.49049999999999994
1.125
1.229
0.305
-0.13449999999999998
0.051
0.09
0.105
0.11
0.125
0.121
0.131
0.131
0.135
0.145
0.141
0.1475
0.156
0.156
0.16
0.163
0.17600000000000002
0.18899999999999997
0.195
0.21100000000000002
0.23
0.24600000000000002
0.266
0.28500000000000003
0.295
0.285
0.27
0.2375
0.205
0.201
0.201
0.18100000000000002
0.18
0.18600000000000003
0.17600000000000002
0.178
0.18899999999999997
0.18600000000000003
0.17600000000000002
0.178
0.17600000000000002
0.18600000000000003
0.17600000000000002
0.17600000000000002
0.18600000000000003
0.18899999999999997
0.17600000000000002
0.18100000000000002
0.18899999999999997
0.17600000000000002
0.166
0.163
0.17600000000000002
0.18
0.17600000000000002
0.17300000000000001
0.17600000000000002
0.17
0.17600000000000002
0.171
0.17
0.18600000000000003
0.18899999999999997
0.178
0.17600000000000002
0.18
0.18600000000000003
0.22249999999999998
0.256
0.266
0.26
0.341
0.336
0.324
0.27899999999999997
0.23249999999999998
0.18899999999999997
0.156
0.145
0.141
0.141
0.141
0.131
0.3025
0.754
1.205
0.914
-0.016499999999999987
-0.064
0.051
0.111
0.113
0.125
0.135
0.131
0.126
0.145
0.145
0.145
0.158
0.156
0.17
0.17
0.18100000000000002
0.18899999999999997
0.18
0.195
0.195
0.21100000000000002
0.24
0.256
0.27749999999999997
0.305
0.295
0.27899999999999997
0.245
0.225
0.215
0.21100000000000002
0.1935
0.18
0.17600000000000002
0.18
0.1905
0.201
0.18600000000000003
0.17600000000000002
0.1845
0.195
0.18899999999999997
0.18
0.178
0.18899999999999997
0.18600000000000003
0.18600000000000003
0.178
0.17
0.17600000000000002
0.17600000000000002
0.178
0.17600000000000002
0.17
0.17600000000000002
0.175
0.16
0.17600000000000002
0.18600000000000003
0.1875
0.18
0.17
0.17600000000000002
0.183
0.18600000000000003
0.18600000000000003
0.18600000000000003
0.20800000000000002
0.24600000000000002
0.24600000000000002
0.285
0.3525
0.314
0.305
0.26
0.23049999999999998
0.17
0.141
0.131
0.131
0.135
0.121
0.141
0.385
0.9490000000000001
1.285
0.74
-0.12
-0.028999999999999998
0.07
0.09
0.098
0.105
0.096
0.105
0.118
0.125
0.125
0.131
0.138
0.135
0.15
0.145
0.161
0.166
0.17
0.18
0.18100000000000002
0.215
0.23399999999999999
0.24600000000000002
0.2655
0.285
0.27
0.25
0.2225
0.205
0.18899999999999997
0.17600000000000002
0.168
0.166
0.17
0.166
0.155
0.16
0.16
0.17600000000000002
0.17
0.166
0.17
0.17
0.17600000000000002
0.17
0.16
0.16
0.165
0.156
0.16
0.17
0.168
0.17600000000000002
0.17600000000000002
0.156
0.153
0.16
0.156
0.17
0.17300000000000001
0.17
0.17
0.17600000000000002
0.165
0.156
0.166
0.17600000000000002
0.183
0.21100000000000002
0.25
0.26
0.28049999999999997
0.34600000000000003
0.336
0.324
0.2705
0.23
0.205
0.166
0.138
0.141
0.135
0.141
0.1555
0.314
0.6
1.1
0.87
-0.18
-0.209
0.025
0.1005
0.105
0.111
0.111
0.12
0.131
0.135
0.141
0.14
0.141
0.16
0.166
0.158
0.16
0.17600000000000002
0.18600000000000003
0.18600000000000003
0.201
0.215
0.23
0.253
0.27899999999999997
0.295
0.295
0.27249999999999996
0.24
0.225
0.21100000000000002
0.1935
0.18
0.18
0.17600000000000002
0.178
0.18
0.17600000000000002
0.17
0.171
0.18
0.18
0.17600000000000002
0.18
0.17600000000000002
0.18
0.18899999999999997
0.17600000000000002
0.17600000000000002
0.17
0.17600000000000002
0.17
0.17600000000000002
0.17600000000000002
0.17600000000000002
0.17
0.17
0.17600000000000002
0.17600000000000002
0.168
0.17
0.17600000000000002
0.18
0.17300000000000001
0.17600000000000002
0.18600000000000003
0.18600000000000003
0.183
0.18600000000000003
0.201
0.24
0.268
0.305
0.35
0.355
0.3175
0.275
0.24600000000000002
0.225
0.1755
0.131
0.131
0.135
0.131
0.121
0.21100000000000002
0.4
1.004
0.885
0.055
-0.21899999999999997
0.007500000000000003
0.105
0.105
0.111
0.11599999999999999
0.121
0.131
0.131
0.1405
0.141
0.141
0.15
0.163
0.15
0.15
0.17
0.183
0.18
0.201
0.215
0.22949999999999998
0.25
0.275
0.301
0.29800000000000004
0.275
0.266
0.24
0.21800000000000003
0.201
0.18899999999999997
0.195
0.1845
0.17600000000000002
0.18
0.195
0.192
0.18600000000000003
0.195
0.18899999999999997
0.183
0.18600000000000003
0.201
0.18899999999999997
0.18
0.18600000000000003
0.18
0.201
0.1875
0.18
0.17600000000000002
0.18600000000000003
0.183
0.18600000000000003
0.18
0.18
0.18100000000000002
0.201
0.195
0.18
0.17300000000000001
0.18899999999999997
0.18600000000000003
0.18899999999999997
0.192
0.18899999999999997
0.205
0.195
0.21300000000000002
0.256
0.266
0.25
0.3415
0.34
0.35
0.305
0.243
0.215
0.17
0.15
0.15
0.15
0.156
0.145
0.2655
0.635
1.115
1.264
0.131
-0.193
0.035
0.105
0.131
0.115
0.121
0.135
0.133
0.16
0.166
0.141
0.1525
0.17600000000000002
0.17
0.156
0.16
0.166
0.17600000000000002
0.18600000000000003
0.198
0.201
0.221
0.24600000000000002
0.27449999999999997
0.29100000000000004
0.295
0.285
0.256
0.221
0.201
0.18600000000000003
0.183
0.18
0.18899999999999997
0.18600000000000003
0.18100000000000002
0.17600000000000002
0.18
0.17600000000000002
0.1875
0.18600000000000003
0.18600000000000003
0.18600000000000003
0.1825
0.18600000000000003
0.166
0.17
0.178
0.17600000000000002
0.166
0.166
0.168
0.17600000000000002
0.166
0.156
0.165
0.17600000000000002
0.17
0.17600000000000002
0.178
0.156
0.16
0.17600000000000002
0.17300000000000001
0.17600000000000002
0.17600000000000002
0.166
0.1795
0.23
0.25
0.24600000000000002
0.3175
0.34600000000000003
0.324
0.301
0.245
0.21100000000000002
0.156
0.135
0.133
0.125
0.131
0.111
0.2355
0.57
1.064
1.273
0.20350000000000001
-0.225
-0.01
0.07
0.093
0.105
0.105
0.111
0.118
0.125
0.131
0.131
0.126
0.125
0.141
0.145
0.1475
0.156
0.16
0.166
0.18100000000000002
0.18899999999999997
0.201
0.215
0.243
0.27
0.275
0.27
0.243
0.21100000000000002
0.195
0.18899999999999997
0.17600000000000002
0.166
0.16
0.156
0.171
0.166
0.156
0.156
0.168
0.17600000000000002
0.17
0.17
0.17
0.166
0.16
0.17
0.163
0.15
0.16
0.156
0.163
0.16
0.156
0.15
0.153
0.156
0.166
0.16
0.158
0.16
0.16
0.16
0.168
0.17600000000000002
0.16
0.17
0.166
0.18
0.205
0.24
0.245
0.32
0.34
0.324
0.292
0.24
0.221
0.195
0.1405
0.131
0.131
0.125
0.123
0.17600000000000002
0.34
0.6759999999999999
1.222
0.275
-0.225
-0.10400000000000001
0.0605
0.105
0.105
0.105
0.11599999999999999
0.121
0.131
0.125
0.138
0.135
0.15
0.156
0.168
0.17600000000000002
0.17
0.17600000000000002
0.1875
0.201
0.201
0.215
0.245
0.275
0.295
0.301
0.29300000000000004
0.27
0.25
0.23
0.2
0.18600000000000003
0.18
0.18
0.17600000000000002
0.17
0.18
0.17600000000000002
0.17600000000000002
0.18899999999999997
0.18
0.17600000000000002
0.18
0.18600000000000003
0.18
0.17600000000000002
0.18100000000000002
0.17600000000000002
0.17600000000000002
0.18
0.17300000000000001
0.17600000000000002
0.17600000000000002
0.17600000000000002
0.17300000000000001
0.17600000000000002
0.18
0.18600000000000003
0.1875
0.18899999999999997
0.18600000000000003
0.18600000000000003
0.1875
0.195
0.201
0.195
0.198
0.201
0.205
0.21100000000000002
0.243
0.275
0.27
0.336
0.367
0.34
0.314
0.266
0.2335
0.18
0.156
0.15
0.145
0.15
0.131
0.156
0.41800000000000004
0.9690000000000001
1.209
0.561
-0.154
0.02
0.096
0.125
0.126
0.121
0.125
0.141
0.153
0.15
0.145
0.15
0.158
0.166
0.17600000000000002
0.17600000000000002
0.17600000000000002
0.17
0.195
0.201
0.21300000000000002
0.23399999999999999
0.24600000000000002
0.27
0.29300000000000004
0.301
0.295
0.27
0.248
0.215
0.205
0.18899999999999997
0.183
0.18
0.18
0.18899999999999997
0.18600000000000003
0.18600000000000003
0.18899999999999997
0.18899999999999997
0.178
0.18
0.18
0.18899999999999997
0.178
0.17600000000000002
0.17600000000000002
0.18
0.17300000000000001
0.17600000000000002
0.17600000000000002
0.17
0.1825
0.17600000000000002
0.17
0.17600000000000002
0.178
0.17600000000000002
0.16
0.17
0.1875
0.17600000000000002
0.166
0.18
0.183
0.17600000000000002
0.17
0.18600000000000003
0.1825
0.17600000000000002
0.18899999999999997
0.221
0.253
0.29100000000000004
0.34600000000000003
0.34
0.319
0.26
0.23399999999999999
0.21100000000000002
0.166
0.135
0.131
0.135
0.133
0.131
0.24
0.439
1.057
0.8240000000000001
0.031
-0.21899999999999997
0.0024999999999999988
0.105
0.105
0.1
0.111
0.115
0.131
0.135
0.14
0.141
0.145
0.15
0.1455
0.166
0.17600000000000002
0.17
0.178
0.18899999999999997
0.195
0.18899999999999997
0.2255
0.24600000000000002
0.266
0.27899999999999997
0.29300000000000004
0.27899999999999997
0.26
0.23
0.2
0.18600000000000003
0.18899999999999997
0.18
0.171
0.16
0.17600000000000002
0.17600000000000002
0.17600000000000002
0.18
0.17600000000000002
0.17600000000000002
0.17300000000000001
0.18
0.17600000000000002
0.17
0.178
0.17
0.17
0.17600000000000002
0.168
0.17600000000000002
0.166
0.156
0.16
0.166
0.17600000000000002
0.17600000000000002
0.168
0.156
0.18
0.17600000000000002
0.168
0.17
0.166
0.166
0.17300000000000001
0.18600000000000003
0.18899999999999997
0.18
0.21949999999999997
0.26
0.24600000000000002
0.285
0.338
0.32
0.311
0.275
0.23550000000000001
0.18899999999999997
0.15
0.135
0.125
0.135
0.131
0.125
0.3415
0.8690000000000001
1.2890000000000001
0.8440000000000001
-0.087
-0.049
0.051
0.1
0.105
0.105
0.115
0.125
0.123
0.131
0.141
0.15
0.143
0.141
0.15
0.16
0.17
0.16
0.166
0.16
0.19699999999999998
0.221
0.23
0.25
0.27449999999999997
0.285
0.285
0.27899999999999997
0.2425
0.201
0.18600000000000003
0.18
0.171
0.16
0.16
0.17
0.17300000000000001
0.166
0.17
0.17600000000000002
0.17300000000000001
0.18
0.17600000000000002
0.17
0.17600000000000002
0.166
0.156
0.166
0.168
0.166
0.156
0.156
0.16
0.156
0.16
0.16
0.16
0.166
0.17
0.17
0.168
0.16
0.166
0.17600000000000002
0.17300000000000001
0.166
0.17
0.166
0.178
0.18899999999999997
0.205
0.23
0.248
0.301
0.34600000000000003
0.32
0.30100000000000005
0.24
0.221
0.201
0.15050000000000002
0.131
0.121
0.121
0.126
0.135
0.25
0.465
1.081
0.75
-0.07
-0.215
0.027999999999999997
0.105
0.1
0.105
0.10250000000000001
0.111
0.121
0.131
0.133
0.145
0.15
0.145
0.15
0.156
0.156
0.166
0.168
0.17600000000000002
0.195
0.21100000000000002
0.22749999999999998
0.26
0.27899999999999997
0.295
0.28300000000000003
0.266
0.24600000000000002
0.225
0.19699999999999998
0.18600000000000003
0.18
0.18
0.17
0.16
0.17
0.17
0.17300000000000001
0.17600000000000002
0.166
0.17
0.18100000000000002
0.18600000000000003
0.18899999999999997
0.18
0.17600000000000002
0.17600000000000002
0.18
0.17
0.173
0.18600000000000003
0.16
0.156
0.163
0.17
0.17600000000000002
0.18
0.17600000000000002
0.17600000000000002
0.17600000000000002
0.17600000000000002
0.17300000000000001
0.17600000000000002
0.18
0.18600000000000003
0.1875
0.18899999999999997
0.18899999999999997
0.18
0.2
0.24
0.27
0.25
0.32999999999999996
0.359
0.336
0.311
0.25
0.221
0.18
0.15
0.138
0.131
0.131
0.131
0.1905
0.455
0.84
1.24
0.4055
-0.18899999999999997
-0.02
0.08
0.115
0.111
0.131
0.131
0.133
0.145
0.135
0.145
0.15
0.16
0.166
0.17600000000000002
0.163
0.17600000000000002
0.17600000000000002
0.195
0.21100000000000002
0.221
0.225
0.24
0.265
0.29100000000000004
0.301
0.295
0.2675
0.23399999999999999
0.215
0.201
0.1825
0.18
0.166
0.17
0.17300000000000001
0.17600000000000002
0.17600000000000002
0.166
0.1825
0.18
0.17
0.16
0.17300000000000001
0.18899999999999997
0.17600000000000002
0.17
0.17300000000000001
0.166
0.15
0.16
0.171
0.156
0.16
0.166
0.168
0.17600000000000002
0.166
0.16
0.166
0.17
0.166
0.17600000000000002
0.168
0.15
0.17
0.17600000000000002
0.17300000000000001
0.17600000000000002
0.17600000000000002
0.18899999999999997
0.23249999999999998
0.26
0.24600000000000002
0.324
0.34950000000000003
0.324
0.295
0.256
0.2335
0.17600000000000002
0.15
0.135
0.145
0.131
0.115
0.18
0.48249999999999993
1.125
1.285
0.439
-0.1865
0.016
0.086
0.1
0.126
0.111
0.121
0.131
0.131
0.135
0.145
0.145
0.1505
0.166
0.166
0.17
0.1845
0.18
0.17600000000000002
0.17600000000000002
0.198
0.21100000000000002
0.24
0.256
0.27449999999999997
0.27899999999999997
0.27
0.26
0.2335
0.21100000000000002
0.18899999999999997
0.17
0.168
0.156
0.16
0.16
0.168
0.166
0.17600000000000002
0.18
0.17300000000000001
0.17600000000000002
0.17600000000000002
0.17600000000000002
0.168
0.17
0.17
0.17600000000000002
0.168
0.15
0.16
0.166
0.161
0.16
0.16
0.17
0.171
0.16
0.166
0.17600000000000002
0.168
0.166
0.16
0.17
0.17600000000000002
0.17600000000000002
0.17600000000000002
0.166
0.17300000000000001
0.17600000000000002
0.205
0.24600000000000002
0.255
0.311
0.35
0.34
0.3145
0.266
0.24600000000000002
0.215
0.1555
0.145
0.135
0.131
0.126
0.17
0.33
0.615
1.1965000000000001
0.551
-0.14800000000000002
-0.21899999999999997
0.04
0.111
0.115
0.111
0.108
0.121
0.125
0.121
0.128
0.135
0.145
0.15
0.1475
0.16
0.156
0.166
0.173
0.18899999999999997
0.18899999999999997
0.201
0.22749999999999998
0.266
0.285
0.295
0.28500000000000003
0.27
0.256
0.23
0.1985
0.18600000000000003
0.18
0.18600000000000003
0.17600000000000002
0.18
0.18
0.17600000000000002
0.183
0.18600000000000003
0.18899999999999997
0.18
0.183
0.18899999999999997
0.18
0.18600000000000003
0.183
0.18899999999999997
0.17600000000000002
0.17600000000000002
0.17300000000000001
0.166
0.166
0.17
0.17600000000000002
0.17600000000000002
0.17
0.166
0.168
0.17600000000000002
0.17
0.17600000000000002
0.183
0.18
0.18600000000000003
0.18600000000000003
0.183
0.18
0.18600000000000003
0.18899999999999997
0.192
0.201
0.225
0.256
0.265
0.324
0.371
0.355
0.3235
0.266
0.24
0.225
0.16499999999999998
0.145
0.15
0.15
0.138
0.166
0.295
0.564
1.1395
0.57
-0.135
-0.205
0.0655
0.121
0.125
0.121
0.133
0.141
0.131
0.141
0.1475
0.15
0.16
0.166
0.168
0.17600000000000002
0.17600000000000002
0.18600000000000003
0.198
0.21100000000000002
0.215
0.225
0.245
0.275
0.29100000000000004
0.305
0.298
0.29100000000000004
0.266
0.24600000000000002
0.2225
0.205
0.201
0.195
0.192
0.18899999999999997
0.18600000000000003
0.18899999999999997
0.198
0.18600000000000003
0.18899999999999997
0.18600000000000003
0.1825
0.18600000000000003
0.18600000000000003
0.18899999999999997
0.1905
0.17600000000000002
0.17600000000000002
0.18
0.183
0.17600000000000002
0.166
0.16
0.178
0.18600000000000003
0.18
0.17600000000000002
0.17300000000000001
0.17600000000000002
0.17600000000000002
0.17
0.17600000000000002
0.18
0.18600000000000003
0.18
0.17600000000000002
0.18
0.18600000000000003
0.18
0.198
0.195
0.21100000000000002
0.25
0.268
0.311
0.359
0.34600000000000003
0.3185
0.256
0.23399999999999999
0.21100000000000002
0.15250000000000002
0.131
0.131
0.141
0.133
0.166
0.314
0.574
1.1395
0.494
-0.145
-0.205
0.051
0.125
0.121
0.125
0.128
0.141
0.131
0.131
0.15
0.15
0.15
0.156
0.165
0.17600000000000002
0.18
0.195
0.1875
0.18899999999999997
0.205
0.221
0.23800000000000002
0.266
0.27899999999999997
0.301
0.303
0.27
0.266
0.24600000000000002
0.213
0.201
0.195
0.18600000000000003
0.17600000000000002
0.17600000000000002
0.17600000000000002
0.18
0.192
0.18899999999999997
0.18899999999999997
0.18600000000000003
0.1875
0.17600000000000002
0.17
0.18
0.17600000000000002
0.17600000000000002
0.17600000000000002
0.166
0.168
0.16
0.166
0.18
0.158
0.166
0.17600000000000002
0.16
0.171
0.17
0.166
0.17600000000000002
0.178
0.17
0.166
0.17600000000000002
0.178
0.17600000000000002
0.17600000000000002
0.17600000000000002
0.2005
0.25
0.24
0.27899999999999997
0.338
0.32
0.311
0.266
0.23550000000000001
0.18
0.141
0.145
0.131
0.131
0.135
0.125
0.3275
0.83
1.273
0.9
-0.0675
-0.08
0.045
0.09
0.10250000000000001
0.105
0.115
0.125
0.133
0.131
0.131
0.141
0.153
0.166
0.156
0.16
0.171
0.17600000000000002
0.17600000000000002
0.17600000000000002
0.195
0.21100000000000002
0.225
0.25
0.2725
0.285
0.275
0.27
0.253
0.225
0.205
0.195
0.1825
0.17
0.17
0.17
0.17300000000000001
0.18600000000000003
0.17600000000000002
0.17600000000000002
0.17600000000000002
0.17600000000000002
0.17
0.17
0.178
0.17600000000000002
0.17600000000000002
0.17
0.161
0.15
0.15
0.15
0.166
0.156
0.16
0.15
0.158
0.156
0.16
0.156
0.168
0.166
0.156
0.16
0.17600000000000002
0.17
0.17
0.16
0.166
0.195
0.225
0.24
0.26749999999999996
0.336
0.34
0.305
0.25649999999999995
0.221
0.18899999999999997
0.145
0.115
0.121
0.125
0.115
0.1305
0.314
0.635
1.145
0.8495000000000001
-0.18899999999999997
-0.209
0.0
0.086
0.1
0.105
0.1
0.10250000000000001
0.111
0.111
0.131
0.128
0.131
0.131
0.141
0.1475
0.15
0.15
0.15
0.168
0.18600000000000003
0.195
0.21100000000000002
0.23550000000000001
0.266
0.27
0.275
0.26449999999999996
0.23399999999999999
0.215
0.201
0.1825
0.166
0.16
0.166
0.17300000000000001
0.156
0.16
0.156
0.158
0.16
0.17
0.17600000000000002
0.17300000000000001
0.166
0.16
0.16
0.168
0.17600000000000002
0.166
0.16
0.16
0.166
0.15
0.156
0.168
0.166
0.16
0.16
0.168
0.17
0.166
0.17
0.168
0.17600000000000002
0.17
0.17600000000000002
0.17600000000000002
0.17600000000000002
0.18600000000000003
0.21100000000000002
0.248
0.275
0.33
0.35
0.3205
0.275
0.24
0.221
0.16949999999999998
0.131
0.121
0.131
0.123
0.111
0.18600000000000003
0.35
0.9520000000000001
1.264
0.215
-0.215
-0.011500000000000007
0.1
0.111
0.105
0.111
0.115
0.121
0.131
0.131
0.135
0.141
0.15
0.153
0.166
0.16
0.17
0.171
0.18899999999999997
0.205
0.21100000000000002
0.21800000000000003
0.24
0.266
0.27899999999999997
0.29
0.285
0.27
0.26
0.22749999999999998
0.195
0.17600000000000002
0.17600000000000002
0.18
0.18
0.17600000000000002
0.17600000000000002
0.18100000000000002
0.18
0.17600000000000002
0.17600000000000002
0.183
0.18899999999999997
0.18600000000000003
0.18899999999999997
0.1845
0.17600000000000002
0.17600000000000002
0.17600000000000002
0.17600000000000002
0.16
0.17
0.18600000000000003
0.18
0.17600000000000002
0.17600000000000002
0.18
0.17600000000000002
0.17600000000000002
0.18
0.18
0.178
0.18600000000000003
0.18
0.18600000000000003
0.183
0.18
0.195
0.21100000000000002
0.252
0.266
0.305
0.365
0.34750000000000003
0.311
0.26
0.24600000000000002
0.2095
0.15
0.145
0.15
0.14
0.131
0.125
0.221
0.5875
1.229
0.895
0.09
-0.119
0.061
0.105
0.105
0.118
0.111
0.111
0.135
0.1475
0.141
0.135
0.15
0.163
0.156
0.15
0.166
0.1825
0.18
0.18600000000000003
0.205
0.21100000000000002
0.23
0.25
0.27
0.29
0.29100000000000004
0.29100000000000004
0.266
0.23249999999999998
0.21100000000000002
0.201
0.18899999999999997
0.192
0.195
0.18600000000000003
0.18
0.18100000000000002
0.18600000000000003
0.18
0.18899999999999997
0.198
0.18600000000000003
0.18600000000000003
0.17600000000000002
0.17600000000000002
0.18
0.195
0.18600000000000003
0.17600000000000002
0.17
0.18
0.17600000000000002
0.168
0.166
0.16
0.156
0.17600000000000002
0.18
0.17600000000000002
0.17600000000000002
0.17600000000000002
0.17
0.18600000000000003
0.18
0.17300000000000001
0.18
0.201
0.221
0.265
0.256
0.324
0.355
0.338
0.301
0.25
0.23399999999999999
0.1825
0.145
0.135
0.145
0.135
0.131
0.21100000000000002
0.371
0.992
1.285
0.25
-0.19899999999999998
-0.036500000000000005
0.086
0.105
0.105
0.118
0.125
0.131
0.145
0.1475
0.15
0.15
0.156
0.165
0.16
0.17
0.17600000000000002
0.1875
0.201
0.205
0.201
0.2225
0.24600000000000002
0.266
0.285
0.295
0.285
0.27
0.25
0.22050000000000003
0.201
0.201
0.18899999999999997
0.183
0.18600000000000003
0.18899999999999997
0.18899999999999997
0.1875
0.18899999999999997
0.18600000000000003
0.18600000000000003
0.1875
0.18600000000000003
0.195
0.201
0.18100000000000002
0.17600000000000002
0.18
0.18
0.183
0.166
0.17600000000000002
0.17600000000000002
0.17300000000000001
0.17
0.17
0.17600000000000002
0.17300000000000001
0.17600000000000002
0.18
0.18600000000000003
0.17600000000000002
0.17600000000000002
0.17600000000000002
0.18
0.1845
0.18600000000000003
0.205
0.23399999999999999
0.26
0.285
0.34
0.35
0.3155
0.27
0.24
0.225
0.168
0.131
0.131
0.131
0.133
0.121
0.225
0.449
1.072
0.865
0.035
-0.18899999999999997
0.0255
0.115
0.121
0.121
0.11599999999999999
0.111
0.115
0.121
0.126
0.131
0.135
0.141
0.145
0.15
0.156
0.16
0.163
0.17600000000000002
0.18899999999999997
0.201
0.21600000000000003
0.24600000000000002
0.26
0.275
0.282
0.27
0.24600000000000002
0.23399999999999999
0.21
0.18899999999999997
0.18
0.17600000000000002
0.17600000000000002
0.17600000000000002
0.18
0.17600000000000002
0.178
0.17600000000000002
0.18
0.18
0.18100000000000002
0.17600000000000002
0.17600000000000002
0.17
0.178
0.17600000000000002
0.17600000000000002
0.17600000000000002
0.17
0.16
0.17
0.17600000000000002
0.17300000000000001
0.166
0.16
0.166
0.17300000000000001
0.17
0.166
0.17
0.168
0.17
0.17600000000000002
0.18
0.17600000000000002
0.17600000000000002
0.18
0.21100000000000002
0.255
0.26
0.311
0.35
0.338
0.314
0.256
0.23
0.1835
0.15
0.145
0.15
0.138
0.125
0.15
0.266
0.7304999999999999
1.24
0.6
-0.115
-0.0945
0.086
0.105
0.105
0.115
0.121
0.105
0.121
0.128
0.131
0.145
0.141
0.15
0.156
0.16
0.17600000000000002
0.17600000000000002
0.18
0.17600000000000002
0.18899999999999997
0.21800000000000003
0.23
0.24600000000000002
0.27
0.29
0.29100000000000004
0.27
0.25
0.2175
0.201
0.195
0.195
0.18100000000000002
0.17600000000000002
0.17600000000000002
0.18
0.178
0.17600000000000002
0.18
0.17600000000000002
0.183
0.17600000000000002
0.17600000000000002
0.18
0.192
0.18600000000000003
0.17600000000000002
0.17600000000000002
0.168
0.17
0.17600000000000002
0.18600000000000003
0.173
0.17
0.166
0.17
0.17300000000000001
0.17600000000000002
0.17600000000000002
0.17
0.175
0.18600000000000003
0.17600000000000002
0.18600000000000003
0.175
0.17
0.17600000000000002
0.18600000000000003
0.2175
0.256
0.24600000000000002
0.301
0.35050000000000003
0.33
0.314
0.266
0.2305
0.17
0.15
0.135
0.136
0.145
0.131
0.125
0.386
0.9490000000000001
1.234
0.664
-0.12199999999999998
-0.02
0.07
0.111
0.12
0.111
0.115
0.121
0.128
0.135
0.145
0.15
0.153
0.16
0.156
0.166
0.17600000000000002
0.17600000000000002
0.18
0.18600000000000003
0.198
0.215
0.23
0.24600000000000002
0.2825
0.295
0.29100000000000004
0.27
0.23249999999999998
0.201
0.18600000000000003
0.17600000000000002
0.178
0.166
0.17
0.17600000000000002
0.17300000000000001
0.166
0.18
0.17600000000000002
0.17300000000000001
0.18
0.18899999999999997
0.18
0.18100000000000002
0.17
0.166
0.17600000000000002
0.171
0.16
0.17600000000000002
0.17
0.163
0.17
0.166
0.16
0.168
0.16
0.16
0.16
0.17300000000000001
0.17600000000000002
0.166
0.17
0.17600000000000002
0.17600000000000002
0.18600000000000003
0.21100000000000002
0.23800000000000002
0.26
0.32
0.34
0.3075
0.26
0.23399999999999999
0.215
0.1555
0.121
0.121
0.131
0.11299999999999999
0.125
0.23399999999999999
0.461
1.094
0.8240000000000001
0.025
-0.215
-0.0020000000000000018
0.086
0.1
0.105
0.105
0.111
0.115
0.115
0.123
0.141
0.135
0.131
0.155
0.156
0.15
0.156
0.165
0.18
0.18600000000000003
0.195
0.20600000000000002
0.23
0.26
0.27899999999999997
0.27749999999999997
0.266
0.24600000000000002
0.225
0.20600000000000002
0.18
0.18
0.18600000000000003
0.183
0.17600000000000002
0.17
0.17600000000000002
0.175
0.17600000000000002
0.18
0.18600000000000003
0.183
0.17600000000000002
0.17
0.17
0.17300000000000001
0.17600000000000002
0.17
0.17600000000000002
0.168
0.16
0.166
0.17
0.165
0.166
0.17
0.17600000000000002
0.16
0.166
0.166
0.17600000000000002
0.166
0.17
0.17
0.166
0.16999999999999998
0.195
0.23
0.25
0.27049999999999996
0.34
0.336
0.314
0.2735
0.23
0.221
0.17
0.138
0.121
0.141
0.135
0.135
0.275
0.52
0.975
0.975
-0.07
-0.193
0.006
0.1035
0.111
0.111
0.115
0.12
0.135
0.141
0.135
0.1475
0.141
0.15
0.16
0.168
0.166
0.17600000000000002
0.17600000000000002
0.195
0.205
0.215
0.225
0.25
0.29100000000000004
0.295
0.29100000000000004
0.2675
0.25
0.23
0.215
0.1905
0.17600000000000002
0.17600000000000002
0.17
0.178
0.17600000000000002
0.18
0.18600000000000003
0.18
0.18600000000000003
0.18
0.18600000000000003
0.192
0.18600000000000003
0.18600000000000003
0.17600000000000002
0.178
0.18
0.17600000000000002
0.17600000000000002
0.178
0.17600000000000002
0.17600000000000002
0.17600000000000002
0.17600000000000002
0.166
0.17600000000000002
0.17600000000000002
0.18
0.18
0.18600000000000003
0.18
0.1905
0.18899999999999997
0.18899999999999997
0.201
0.21300000000000002
0.256
0.29100000000000004
0.275
0.35250000000000004
0.385
0.365
0.336
0.2605
0.23
0.195
0.16
0.15
0.141
0.145
0.135
0.1985
0.465
0.879
1.254
0.3805
-0.18
-0.004
0.086
0.123
0.131
0.125
0.131
0.128
0.141
0.135
0.141
0.158
0.166
0.17
0.18
0.18100000000000002
0.17600000000000002
0.18600000000000003
0.201
0.21300000000000002
0.23
0.24600000000000002
0.24600000000000002
0.27549999999999997
0.295
0.295
0.295
0.2705
0.23399999999999999
0.215
0.201
0.192
0.201
0.18899999999999997
0.18
0.1875
0.18600000000000003
0.18
0.18
0.1875
0.17600000000000002
0.17
0.18600000000000003
0.18100000000000002
0.18
0.18899999999999997
0.17600000000000002
0.183
0.18
0.17600000000000002
0.17600000000000002
0.17600000000000002
0.17600000000000002
0.166
0.166
0.17300000000000001
0.17600000000000002
0.17600000000000002
0.16
0.171
0.18
0.17600000000000002
0.17600000000000002
0.178
0.17600000000000002
0.17600000000000002
0.17600000000000002
0.2205
0.275
0.27
0.285
0.33999999999999997
0.33
0.32
0.27899999999999997
0.23249999999999998
0.201
0.145
0.131
0.138
0.135
0.135
0.131
0.32
0.795
1.244
0.9390000000000001
-0.013499999999999998
-0.07400000000000001
0.045
0.111
0.125
0.125
0.125
0.131
0.135
0.141
0.15
0.16
0.168
0.16
0.17600000000000002
0.18600000000000003
0.178
0.201
0.21100000000000002
0.195
0.21300000000000002
0.23399999999999999
0.24600000000000002
0.266
0.29
0.295
0.295
0.301
0.256
0.23
0.215
0.195
0.1845
0.17600000000000002
0.17600000000000002
0.18600000000000003
0.18100000000000002
0.17600000000000002
0.18600000000000003
0.18
0.18100000000000002
0.18600000000000003
0.18899999999999997
0.18899999999999997
0.18899999999999997
0.18
0.18600000000000003
0.18899999999999997
0.18100000000000002
0.17
0.166
0.17600000000000002
0.178
0.17600000000000002
0.166
0.17600000000000002
0.17600000000000002
0.18
0.17
0.17
0.17300000000000001
0.17600000000000002
0.17600000000000002
0.17
0.171
0.18600000000000003
0.18899999999999997
0.201
0.24
0.24
0.285
0.35
0.33
0.311
0.27
0.256
0.21000000000000002
0.15
0.141
0.145
0.136
0.131
0.15
0.27
0.7825
1.334
0.73
-0.049
-0.10949999999999999
0.076
0.105
0.105
0.123
0.105
0.125
0.125
0.126
0.135
0.135
0.141
0.15
0.15
0.15
0.16
0.163
0.17600000000000002
0.195
0.201
0.21300000000000002
0.24
0.27
0.27
0.28500000000000003
0.285
0.266
0.23399999999999999
0.21300000000000002
0.195
0.18600000000000003
0.18
0.175
0.17600000000000002
0.17600000000000002
0.17600000000000002
0.168
0.16
0.166
0.17600000000000002
0.1905
0.17
0.17
0.166
0.178
0.17600000000000002
0.17
0.166
0.168
0.156
0.16
0.16
0.153
0.15
0.166
0.166
0.171
0.156
0.156
0.166
0.163
0.156
0.16
0.166
0.178
0.166
0.156
0.166
0.2145
0.24600000000000002
0.23399999999999999
0.305
0.325
0.311
0.285
0.24
0.21100000000000002
0.16
0.145
0.131
0.128
0.131
0.125
0.18
0.5155
1.193
1.3090000000000002
0.375
-0.14200000000000002
0.035
0.096
0.105
0.105
0.115
0.115
0.111
0.113
0.121
0.131
0.135
0.133
0.131
0.131
0.145
0.15
0.145
0.156
0.17
0.1825
0.205
0.215
0.24
0.265
0.256
0.24600000000000002
0.23399999999999999
0.21300000000000002
0.18
0.166
0.156
0.158
0.15
0.141
0.15
0.153
0.15
0.15
0.156
0.158
0.16
0.156
0.16
0.155
0.156
0.17
0.166
0.153
0.156
0.156
0.15
0.15
0.156
0.16
0.156
0.163
0.166
0.166
0.166
0.166
0.17
0.17
0.17600000000000002
0.17600000000000002
0.18
0.18
0.18
0.1955
0.24
0.266
0.25
0.3255
0.336
0.324
0.301
0.2375
0.205
0.156
0.131
0.131
0.131
0.131
0.121
0.21250000000000002
0.529
0.9840000000000001
1.229
0.25
-0.209
0.006
0.086
0.113
0.105
0.105
0.111
0.126
0.141
0.141
0.135
0.133
0.15
0.17
0.166
0.163
0.17
0.166
0.17
0.20600000000000002
0.225
0.23
0.225
0.26949999999999996
0.29100000000000004
0.295
0.285
0.255
0.221
0.195
0.18600000000000003
0.168
0.15
0.156
0.16
0.153
0.166
0.17600000000000002
0.16
0.153
0.17
0.17
0.16
0.17300000000000001
0.17
0.16
0.15
0.15
0.15
0.156
0.16
0.15
0.156
0.156
0.16
0.1475
0.15
0.15
0.145
0.15
0.156
0.156
0.15
0.153
0.145
0.17
0.166
0.168
0.201
0.23
0.24
0.265
0.34
0.32
0.311
0.252
0.225
0.195
0.141
0.12
0.121
0.125
0.115
0.1355
0.324
0.66
1.139
0.802
-0.184
-0.209
0.02
0.088
0.105
0.105
0.105
0.11599999999999999
0.131
0.131
0.121
0.128
0.15
0.156
0.15
0.161
0.156
0.156
0.17
0.178
0.201
0.21100000000000002
0.221
0.245
0.275
0.285
0.27
0.258
0.24
0.221
0.201
0.173
0.17
0.166
0.17600000000000002
0.161
0.166
0.17
0.166
0.161
0.16
0.166
0.17600000000000002
0.166
0.17600000000000002
0.17600000000000002
0.17600000000000002
0.161
0.166
0.166
0.17
0.161
0.156
0.15
0.156
0.163
0.156
0.16
0.156
0.155
0.166
0.17
0.17600000000000002
0.156
0.16
0.16
0.166
0.17300000000000001
0.205
0.24
0.24600000000000002
0.2975
0.34
0.301
0.301
0.2545
0.221
0.18
0.135
0.136
0.131
0.131
0.125
0.1775
0.42
0.8240000000000001
1.305
0.5605
-0.19899999999999998
-0.059000000000000004
0.055
0.10250000000000001
0.105
0.115
0.111
0.123
0.131
0.135
0.145
0.138
0.141
0.145
0.15
0.166
0.17
0.166
0.17600000000000002
0.198
0.205
0.221
0.23399999999999999
0.26449999999999996
0.301
0.305
0.29100000000000004
0.26
0.225
0.205
0.195
0.18100000000000002
0.17600000000000002
0.17600000000000002
0.17600000000000002
0.178
0.18
0.17600000000000002
0.17600000000000002
0.18
0.18600000000000003
0.18899999999999997
0.18899999999999997
0.183
0.18
0.17600000000000002
0.18
0.168
0.17600000000000002
0.17600000000000002
0.17600000000000002
0.17300000000000001
0.166
0.166
0.166
0.166
0.17
0.18
0.17600000000000002
0.166
0.17600000000000002
0.17600000000000002
0.17
0.17600000000000002
0.17600000000000002
0.17600000000000002
0.17
0.183
0.201
0.225
0.266
0.2705
0.34600000000000003
0.355
0.33
0.2855
0.23399999999999999
0.225
0.18899999999999997
0.1525
0.131
0.131
0.131
0.128
0.23399999999999999
0.455
0.855
1.0565000000000002
-0.004
-0.19899999999999998
-0.035
0.0785
0.1
0.09
0.096
0.108
0.105
0.1
0.121
0.126
0.135
0.141
0.145
0.1475
0.141
0.145
0.15
0.163
0.18600000000000003
0.195
0.201
0.23550000000000001
0.27
0.27899999999999997
0.285
0.27449999999999997
0.256
0.23
0.205
0.173
0.166
0.156
0.166
0.171
0.15
0.15
0.156
0.17300000000000001
0.17600000000000002
0.17600000000000002
0.17600000000000002
0.163
0.156
0.17
0.16
0.158
0.16
0.156
0.16
0.168
0.166
0.16
0.15
0.161
0.17600000000000002
0.17600000000000002
0.17600000000000002
0.183
0.17600000000000002
0.17600000000000002
0.17600000000000002
0.1875
0.18899999999999997
0.201
0.201
0.201
0.21100000000000002
0.205
0.24600000000000002
0.292
0.295
0.35
0.385
0.373
0.336
0.285
0.26
0.2205
0.18
0.17600000000000002
0.17600000000000002
0.171
0.15
0.195
0.35
0.8615
1.2790000000000001
0.506
-0.11900000000000001
-0.05450000000000001
0.125
0.156
0.166
0.1475
0.16
0.17
0.166
0.158
0.17600000000000002
0.18
0.18
0.1905
0.201
0.201
0.205
0.20600000000000002
0.225
0.221
0.23399999999999999
0.26
0.285
0.295
0.314
0.314
0.305
0.295
0.27
0.25
0.221
0.21100000000000002
0.201
0.198
0.18899999999999997
0.18
0.18
0.198
0.195
0.195
0.18899999999999997
0.198
0.18899999999999997
0.18600000000000003
0.195
0.198
0.18600000000000003
0.18899999999999997
0.201
0.183
0.18
0.18600000000000003
0.18600000000000003
0.1825
0.18
0.18
0.17600000000000002
0.1905
0.18899999999999997
0.18600000000000003
0.18
0.178
0.18600000000000003
0.18
0.201
0.18899999999999997
0.201
0.201
0.201
0.21300000000000002
0.25
0.25
0.29100000000000004
0.3545
0.34
0.324
0.275
0.2375
0.18600000000000003
0.156
0.141
0.133
0.141
0.131
0.125
0.33
0.82
1.2790000000000001
0.93
-0.03699999999999999
-0.064
0.045
0.1
0.11599999999999999
0.135
0.131
0.125
0.123
0.131
0.135
0.135
0.1525
0.16
0.166
0.16
0.16
0.17
0.17600000000000002
0.18
0.195
0.205
0.221
0.24600000000000002
0.27549999999999997
0.295
0.29100000000000004
0.27
0.251
0.225
0.201
0.18600000000000003
0.168
0.166
0.17
0.17600000000000002
0.175
0.17600000000000002
0.17600000000000002
0.18
0.17600000000000002
0.166
0.17
0.166
0.165
0.15
0.17600000000000002
0.17
0.168
0.156
0.15
0.16
0.158
0.16
0.156
0.16
0.153
0.166
0.156
0.16
0.168
0.166
0.17
0.16
0.16
0.17
0.16
0.17
0.1955
0.24
0.25
0.23399999999999999
0.332
0.32
0.314
0.275
0.2225
0.17
0.15
0.131
0.126
0.125
0.121
0.105
0.2805
0.7340000000000001
1.225
1.264
-0.006999999999999992
-0.084
0.031
0.086
0.1
0.1
0.09
0.1
0.11
0.115
0.105
0.115
0.125
0.121
0.131
0.141
0.136
0.15
0.15
0.166
0.17300000000000001
0.195
0.215
0.24
0.263
0.27899999999999997
0.27899999999999997
0.266
0.23049999999999998
0.201
0.18600000000000003
0.17600000000000002
0.163
0.156
0.16
0.166
0.153
0.16
0.166
0.145
0.153
0.156
0.16
0.16
0.163
0.16
0.17
0.16
0.158
0.156
0.16
0.15
0.158
0.156
0.16
0.166
0.153
0.16
0.15
0.166
0.165
0.166
0.166
0.17
0.163
0.16
0.166
0.17
0.1775
0.23399999999999999
0.256
0.24600000000000002
0.3075
0.34
0.314
0.301
0.247
0.215
0.17
0.145
0.125
0.131
0.131
0.115
0.161
0.40399999999999997
0.8140000000000001
1.25
0.46
-0.205
-0.025
0.07
0.108
0.111
0.111
0.115
0.13
0.135
0.131
0.135
0.1475
0.166
0.16
0.16
0.156
0.16
0.166
0.17
0.19699999999999998
0.205
0.221
0.23
0.258
0.295
0.301
0.285
0.2805
0.24600000000000002
0.221
0.201
0.18899999999999997
0.17600000000000002
0.16
0.17600000000000002
0.1875
0.18
0.17600000000000002
0.17
0.17600000000000002
0.17
0.18
0.18600000000000003
0.18899999999999997
0.18600000000000003
0.18899999999999997
0.18899999999999997
0.18100000000000002
0.17600000000000002
0.18600000000000003
0.17600000000000002
0.163
0.17600000000000002
0.18600000000000003
0.18600000000000003
0.178
0.17600000000000002
0.18
0.17600000000000002
0.1905
0.18600000000000003
0.18
0.18899999999999997
0.21
0.201
0.18899999999999997
0.195
0.201
0.205
0.24
0.27899999999999997
0.28300000000000003
0.34600000000000003
0.365
0.365
0.323
0.25
0.24
0.21100000000000002
0.158
0.15
0.15
0.145
0.14
0.221
0.381
0.73
1.2315
0.24600000000000002
-0.17
-0.059000000000000004
0.1005
0.135
0.125
0.131
0.128
0.15
0.145
0.135
0.1525
0.156
0.156
0.166
0.17300000000000001
0.166
0.17600000000000002
0.18
0.192
0.205
0.205
0.21100000000000002
0.23550000000000001
0.266
0.285
0.301
0.27749999999999997
0.27
0.25
0.225
0.203
0.18600000000000003
0.17600000000000002
0.18899999999999997
0.195
0.17600000000000002
0.17600000000000002
0.18899999999999997
0.178
0.18899999999999997
0.195
0.18899999999999997
0.17600000000000002
0.18899999999999997
0.195
0.18600000000000003
0.178
0.17600000000000002
0.16
0.17600000000000002
0.178
0.18600000000000003
0.17600000000000002
0.166
0.18100000000000002
0.18
0.18899999999999997
0.17600000000000002
0.1875
0.18899999999999997
0.17600000000000002
0.17600000000000002
0.1825
0.18600000000000003
0.18600000000000003
0.17600000000000002
0.198
0.201
0.221
0.266
0.26749999999999996
0.32
0.365
0.35
0.3205
0.27
0.26
0.225
0.16799999999999998
0.15
0.15
0.15
0.138
0.205
0.365
0.6759999999999999
1.2395
0.41600000000000004
-0.145
-0.16399999999999998
0.0625
0.121
0.131
0.125
0.123
0.135
0.15
0.156
0.133
0.15
0.166
0.17600000000000002
0.155
0.166
0.17600000000000002
0.18
0.18899999999999997
0.195
0.201
0.215
0.23800000000000002
0.266
0.275
0.285
0.29
0.275
0.256
0.23
0.203
0.18
0.18899999999999997
0.18600000000000003
0.183
0.17
0.166
0.17
0.17300000000000001
0.17600000000000002
0.18600000000000003
0.18899999999999997
0.178
0.18
0.18600000000000003
0.17600000000000002
0.168
0.17600000000000002
0.18
0.17600000000000002
0.171
0.16
0.166
0.17600000000000002
0.17300000000000001
0.17
0.17600000000000002
0.17600000000000002
0.178
0.166
0.17
0.17600000000000002
0.178
0.17600000000000002
0.17600000000000002
0.18600000000000003
0.183
0.17600000000000002
0.18
0.195
0.2435
0.256
0.285
0.34600000000000003
0.34750000000000003
0.314
0.275
0.24600000000000002
0.21000000000000002
0.156
0.131
0.135
0.136
0.125
0.111
0.221
0.6395000000000001
1.285
0.885
0.055
-0.11199999999999999
0.064
0.105
0.115
0.105
0.111
0.121
0.125
0.126
0.131
0.131
0.145
0.1475
0.141
0.15
0.166
0.17
0.17600000000000002
0.18
0.18
0.20800000000000002
0.23
0.24600000000000002
0.27
0.29300000000000004
0.29100000000000004
0.27
0.25
0.2225
0.18899999999999997
0.18
0.17600000000000002
0.17600000000000002
0.17
0.17600000000000002
0.17
0.168
0.166
0.17600000000000002
0.17600000000000002
0.17600000000000002
0.17600000000000002
0.17
0.17
0.17300000000000001
0.166
0.166
0.17
0.161
0.156
0.16
0.16
0.168
0.17600000000000002
0.17600000000000002
0.17600000000000002
0.178
0.18
0.17
0.17600000000000002
0.1905
0.18
0.17600000000000002
0.17600000000000002
0.178
0.17600000000000002
0.17600000000000002
0.17600000000000002
0.1855
0.23
0.266
0.256
0.3125
0.359
0.336
0.32
0.25949999999999995
0.221
0.18600000000000003
0.15
0.135
0.131
0.131
0.121
0.155
0.375
0.725
1.1840000000000002
0.6795
-0.193
-0.049
0.055
0.10250000000000001
0.105
0.121
0.131
0.125
0.131
0.145
0.15
0.138
0.15
0.16
0.156
0.155
0.17600000000000002
0.17600000000000002
0.18
0.203
0.201
0.215
0.23399999999999999
0.258
0.295
0.305
0.29100000000000004
0.27449999999999997
0.25
0.23
0.195
0.17600000000000002
0.17600000000000002
0.17600000000000002
0.18600000000000003
0.171
0.17
0.156
0.16
0.178
0.18899999999999997
0.166
0.16
0.163
0.17600000000000002
0.18600000000000003
0.17
0.16
0.17600000000000002
0.15
0.15
0.158
0.145
0.135
0.141
0.158
0.15
0.15
0.15
0.1525
0.145
0.141
0.15
0.156
0.166
0.156
0.156
0.15
0.16
0.201
0.23
0.23550000000000001
0.285
0.32
0.324
0.27549999999999997
0.225
0.225
0.18899999999999997
0.125
0.125
0.131
0.121
0.10550000000000001
0.18899999999999997
0.34
0.65
1.1925
0.33
-0.193
-0.215
0.046
0.1
0.096
0.105
0.108
0.105
0.115
0.131
0.13
0.135
0.141
0.135
0.143
0.16
0.17
0.166
0.17600000000000002
0.18600000000000003
0.195
0.201
0.22
0.256
0.27
0.285
0.27
0.26
0.24
0.221
0.2
0.18
0.17
0.17600000000000002
0.18
0.17600000000000002
0.17
0.17600000000000002
0.1845
0.17600000000000002
0.17
0.18899999999999997
0.178
0.18600000000000003
0.18899999999999997
0.18
0.183
0.17
0.166
0.17600000000000002
0.178
0.17600000000000002
0.17600000000000002
0.17600000000000002
0.17300000000000001
0.166
0.17
0.17
0.178
0.17600000000000002
0.17600000000000002
0.166
0.18100000000000002
0.18899999999999997
0.17600000000000002
0.17
0.175
0.201
0.221
0.256
0.265
0.336
0.355
0.34
0.2995
0.24600000000000002
0.24
0.21100000000000002
0.1575
0.135
0.145
0.135
0.128
0.205
0.395
0.779
1.2725
0.201
-0.19899999999999998
-0.07
0.078
0.125
0.115
0.125
0.123
0.121
0.131
0.125
0.1475
0.156
0.156
0.166
0.17300000000000001
0.166
0.17
0.18
0.20600000000000002
0.201
0.215
0.23
0.256
0.29100000000000004
0.305
0.301
0.295
0.285
0.26
0.24600000000000002
0.21800000000000003
0.201
0.18899999999999997
0.18899999999999997
0.1905
0.18899999999999997
0.201
0.195
0.18600000000000003
0.195
0.18899999999999997
0.18600000000000003
0.1905
0.18600000000000003
0.18899999999999997
0.18899999999999997
0.192
0.17600000000000002
0.18
0.17600000000000002
0.18100000000000002
0.18
0.18600000000000003
0.18
0.1875
0.18
0.18899999999999997
0.18600000000000003
0.178
0.18899999999999997
0.201
0.201
0.195
0.195
0.18899999999999997
0.195
0.195
0.201
0.201
0.221
0.26949999999999996
0.266
0.32
0.365
0.345
0.314
0.275
0.24600000000000002
0.20350000000000001
0.16
0.156
0.16
0.1475
0.125
0.156
0.275
0.7355
1.264
0.664
-0.084
-0.08449999999999999
0.1
0.125
0.121
0.128
0.125
0.131
0.125
0.14
0.145
0.15
0.156
0.165
0.166
0.17600000000000002
0.18600000000000003
0.18899999999999997
0.195
0.201
0.215
0.23550000000000001
0.256
0.27
0.295
0.3125
0.301
0.285
0.26
0.23049999999999998
0.215
0.201
0.18600000000000003
0.178
0.18899999999999997
0.17600000000000002
0.18
0.178
0.17600000000000002
0.17600000000000002
0.18
0.18100000000000002
0.18
0.195
0.201
0.183
0.17600000000000002
0.166
0.17
0.17600000000000002
0.17600000000000002
0.166
0.156
0.163
0.17600000000000002
0.17600000000000002
0.166
0.17600000000000002
0.17
0.16
0.17600000000000002
0.17600000000000002
0.17600000000000002
0.17600000000000002
0.18600000000000003
0.183
0.18
0.18600000000000003
0.18899999999999997
0.1935
0.24
0.275
0.27
0.3345
0.35
0.336
0.305
0.248
0.23399999999999999
0.18
0.16
0.153
0.15
0.135
0.135
0.21300000000000002
0.516
0.9390000000000001
1.254
0.32549999999999996
-0.18
0.01
0.096
0.131
0.131
0.131
0.131
0.136
0.15
0.15
0.145
0.153
0.17600000000000002
0.17600000000000002
0.17
0.171
0.17600000000000002
0.17600000000000002
0.18899999999999997
0.20600000000000002
0.21100000000000002
0.225
0.25
0.27
0.285
0.295
0.29100000000000004
0.26
0.24600000000000002
0.221
0.21100000000000002
0.1845
0.17600000000000002
0.166
0.17600000000000002
0.18100000000000002
0.18899999999999997
0.17600000000000002
0.17600000000000002
0.18100000000000002
0.18
0.18
0.17600000000000002
0.1875
0.17600000000000002
0.166
0.16
0.175
0.17
0.166
0.17600000000000002
0.17300000000000001
0.17600000000000002
0.16
0.15
0.1555
0.17600000000000002
0.166
0.16
0.163
0.156
0.15
0.156
0.163
0.17
0.17600000000000002
0.16
0.173
0.21100000000000002
0.23399999999999999
0.225
0.2855
0.324
0.314
0.305
0.22749999999999998
0.201
0.166
0.135
0.113
0.1
0.105
0.115
0.1675
0.439
0.865
1.2890000000000001
0.43450000000000005
-0.22899999999999998
-0.064
0.051
0.088
0.096
0.09
0.09
0.10250000000000001
0.115
0.111
0.115
0.131
0.131
0.141
0.145
0.138
0.141
0.145
0.17
0.171
0.17600000000000002
0.201
0.23
0.251
0.275
0.27
0.275
0.255
0.225
0.205
0.18899999999999997
0.171
0.17600000000000002
0.17600000000000002
0.17600000000000002
0.17300000000000001
0.166
0.17600000000000002
0.17
0.178
0.17
0.166
0.17600000000000002
0.17300000000000001
0.18
0.17600000000000002
0.17600000000000002
0.163
0.166
0.156
0.166
0.17300000000000001
0.17
0.166
0.156
0.171
0.166
0.166
0.17
0.168
0.18
0.17600000000000002
0.17600000000000002
0.17600000000000002
0.18
0.18
0.17600000000000002
0.175
0.21100000000000002
0.24600000000000002
0.266
0.28049999999999997
0.35
0.336
0.32
0.2655
0.23
0.21100000000000002
0.17
0.14
0.131
0.131
0.131
0.1405
0.33
0.625
1.125
0.8604999999999999
-0.18
-0.193
0.02
0.0955
0.111
0.111
0.111
0.118
0.131
0.131
0.131
0.133
0.145
0.15
0.145
0.155
0.17
0.17600000000000002
0.17600000000000002
0.178
0.201
0.201
0.225
0.253
0.27899999999999997
0.275
0.29100000000000004
0.277
0.25
0.23
0.221
0.192
0.18600000000000003
0.18
0.17600000000000002
0.17600000000000002
0.17600000000000002
0.17600000000000002
0.17
0.178
0.18600000000000003
0.18
0.18600000000000003
0.18100000000000002
0.18
0.17600000000000002
0.18
0.17600000000000002
0.17600000000000002
0.17
0.166
0.171
0.17
0.17600000000000002
0.17600000000000002
0.153
0.166
0.16
0.156
0.166
0.16
0.17600000000000002
0.17
0.17600000000000002
0.18
0.17600000000000002
0.17600000000000002
0.17600000000000002
0.17600000000000002
0.18899999999999997
0.23
0.268
0.29100000000000004
0.34
0.35
0.3125
0.256
0.23
0.21100000000000002
0.1655
0.125
0.115
0.111
0.123
0.111
0.205
0.4
0.9945
0.904
0.07
-0.205
0.015500000000000003
0.1
0.086
0.08
0.1005
0.105
0.115
0.111
0.113
0.125
0.131
0.135
0.138
0.15
0.145
0.15
0.153
0.17
0.17600000000000002
0.18899999999999997
0.20500000000000002
0.23399999999999999
0.24600000000000002
0.266
0.265
0.27
0.25
0.225
0.1935
0.17600000000000002
0.18
0.16
0.153
0.15
0.17600000000000002
0.166
0.166
0.166
0.17
0.17600000000000002
0.158
0.166
0.156
0.15
0.17300000000000001
0.17
0.15
0.141
0.155
0.166
0.17
0.156
0.1475
0.17
0.166
0.16
0.183
0.17
0.15
0.166
0.178
0.17
0.15
0.16
0.183
0.17600000000000002
0.18
0.201
0.2405
0.25
0.295
0.34600000000000003
0.338
0.34
0.266
0.23399999999999999
0.2005
0.15
0.15
0.125
0.128
0.135
0.166
0.266
0.672
1.26
0.779
0.051
-0.0975
0.07
0.105
0.115
0.123
0.111
0.141
0.131
0.133
0.156
0.15
0.145
0.163
0.156
0.16
0.166
0.1855
0.205
0.205
0.201
0.23049999999999998
0.23399999999999999
0.24
0.27
0.306
0.29100000000000004
0.27
0.266
0.23550000000000001
0.215
0.18899999999999997
0.18899999999999997
0.17600000000000002
0.18899999999999997
0.201
0.201
0.201
0.18899999999999997
0.201
0.205
0.1885
0.18899999999999997
0.195
0.18899999999999997
0.17600000000000002
0.18
0.195
0.18
0.1905
0.18899999999999997
0.18
0.18600000000000003
0.171
0.17600000000000002
0.17
0.18899999999999997
0.1855
0.18
0.17600000000000002
0.201
0.1905
0.18
0.17600000000000002
0.18
0.1855
0.24
0.26
0.256
0.3105
0.355
0.336
0.311
0.277
0.24600000000000002
0.18899999999999997
0.145
0.135
0.15
0.156
0.15
0.22299999999999998
0.564
1.0290000000000001
1.369
0.39549999999999996
-0.254
-0.055
0.076
0.10550000000000001
0.115
0.105
0.125
0.14250000000000002
0.166
0.15
0.145
0.168
0.156
0.17600000000000002
0.18
0.17300000000000001
0.18899999999999997
0.201
0.201
0.203
0.21100000000000002
0.23
0.25
0.2805
0.301
0.305
0.295
0.2785
0.23
0.205
0.18899999999999997
0.183
0.18
0.17600000000000002
0.17600000000000002
0.168
0.16
0.17
0.16
0.158
0.156
0.16
0.16
0.15
0.15
0.15
0.145
0.141
0.145
0.131
0.141
0.133
0.135
0.141
0.141
0.1455
0.15
0.145
0.15
0.153
0.156
0.156
0.18600000000000003
0.23550000000000001
0.23399999999999999
0.301
0.336
0.327
0.295
0.24600000000000002
0.225
0.1785
0.131
0.121
0.125
0.121
0.111
0.16
0.336
0.9140000000000001
1.3630000000000002
0.465
-0.22899999999999998
-0.124
0.076
0.09
0.096
0.095
0.105
0.105
0.105
0.113
0.115
0.125
0.121
0.128
0.135
0.135
0.145
0.156
0.156
0.166
0.18600000000000003
0.2
0.23399999999999999
0.25
0.27
0.28800000000000003
0.26
0.25
0.23399999999999999
0.203
0.17600000000000002
0.166
0.156
0.158
0.16
0.156
0.156
0.158
0.156
0.156
0.16
0.156
0.16
0.166
0.16
0.16
0.156
0.156
0.15
0.156
0.15
0.15
0.156
0.153
0.15
0.156
0.16
0.163
0.156
0.16
0.166
0.17300000000000001
0.18
0.215
0.256
0.253
0.311
0.34
0.32
0.295
0.24600000000000002
0.23
0.195
0.138
0.131
0.131
0.121
0.12
0.18600000000000003
0.359
0.6990000000000001
1.2345000000000002
0.21100000000000002
-0.209
-0.064
0.08
0.111
0.105
0.105
0.113
0.121
0.125
0.131
0.136
0.145
0.141
0.15
0.161
0.17
0.17600000000000002
0.17600000000000002
0.183
0.195
0.21100000000000002
0.225
0.243
0.27899999999999997
0.295
0.305
0.301
0.275
0.24600000000000002
0.221
0.2
0.18600000000000003
0.18
0.18600000000000003
0.18
0.18
0.17600000000000002
0.18
0.18100000000000002
0.17600000000000002
0.18600000000000003
0.18899999999999997
0.178
0.17600000000000002
0.17
0.166
0.178
0.17600000000000002
0.17600000000000002
0.17600000000000002
0.163
0.166
0.17600000000000002
0.17600000000000002
0.168
0.17600000000000002
0.17600000000000002
0.18
0.17600000000000002
0.17600000000000002
0.18
0.17600000000000002
0.17600000000000002
0.18
0.215
0.26
0.263
0.32
0.355
0.336
0.3025
0.25
0.24
0.21100000000000002
0.1535
0.131
0.125
0.135
0.128
0.166
0.305
0.6
1.169
0.465
-0.145
-0.193
0.049999999999999996
0.115
0.111
0.111
0.123
0.115
0.121
0.131
0.15
0.15
0.156
0.15
0.161
0.17600000000000002
0.17600000000000002
0.17600000000000002
0.1825
0.205
0.215
0.221
0.243
0.275
0.285
0.29100000000000004
0.287
0.266
0.24600000000000002
0.221
0.203
0.18899999999999997
0.18600000000000003
0.18
0.18100000000000002
0.17600000000000002
0.18600000000000003
0.18899999999999997
0.178
0.18600000000000003
0.18
0.18
0.18
0.18
0.18
0.17600000000000002
0.183
0.18600000000000003
0.18
0.18899999999999997
0.168
0.17600000000000002
0.17600000000000002
0.17600000000000002
0.17600000000000002
0.17600000000000002
0.17
0.17600000000000002
0.178
0.17600000000000002
0.17600000000000002
0.17600000000000002
0.18899999999999997
0.18600000000000003
0.18
0.195
0.2435
0.26
0.285
0.34600000000000003
0.34950000000000003
0.336
0.285
0.25
0.2095
0.16
0.156
0.15
0.15
0.135
0.131
0.24600000000000002
0.673
1.334
0.924
0.1
-0.125
0.064
0.111
0.121
0.123
0.121
0.125
0.131
0.131
0.141
0.15
0.156
0.153
0.16
0.17600000000000002
0.17
0.17300000000000001
0.18
0.195
0.201
0.20800000000000002
0.24
0.266
0.275
0.29300000000000004
0.29100000000000004
0.275
0.25
0.2225
0.195
0.18
0.17600000000000002
0.166
0.17600000000000002
0.17
0.17600000000000002
0.17300000000000001
0.18
0.17600000000000002
0.17
0.17600000000000002
0.17600000000000002
0.17600000000000002
0.18600000000000003
0.1845
0.18
0.17600000000000002
0.18
0.178
0.17600000000000002
0.17600000000000002
0.18600000000000003
0.17600000000000002
0.17600000000000002
0.17600000000000002
0.17600000000000002
0.17600000000000002
0.17600000000000002
0.17600000000000002
0.17600000000000002
0.178
0.18600000000000003
0.17600000000000002
0.18
0.183
0.201
0.221
0.25
0.256
0.314
0.35
0.336
0.3025
0.24
0.23
0.205
0.14550000000000002
0.125
0.131
0.125
0.118
0.16
0.336
0.6409999999999999
1.217
0.359
-0.215
-0.115
0.048
0.096
0.09
0.096
0.1005
0.105
0.115
0.115
0.118
0.131
0.135
0.141
0.1475
0.15
0.15
0.15
0.161
0.18
0.201
0.21100000000000002
0.223
0.25
0.27899999999999997
0.29100000000000004
0.28500000000000003
0.266
0.24
0.215
0.1875
0.17600000000000002
0.17600000000000002
0.17
0.161
0.156
0.166
0.166
0.165
0.17600000000000002
0.17600000000000002
0.17600000000000002
0.17
0.17
0.17
0.166
0.163
0.156
0.156
0.17
0.163
0.166
0.16
0.166
0.16
0.166
0.156
0.16
0.168
0.17
0.166
0.17
0.17600000000000002
0.18600000000000003
0.17600000000000002
0.17
0.17300000000000001
0.195
0.221
0.24600000000000002
0.251
0.314
0.35
0.336
0.2965
0.24
0.221
0.201
0.14550000000000002
0.131
0.131
0.125
0.12
0.16
0.301
0.574
1.137
0.42
-0.174
-0.193
0.0655
0.115
0.115
0.111
0.123
0.131
0.131
0.141
0.1455
0.145
0.145
0.16
0.163
0.17
0.17
0.17600000000000002
0.1935
0.18899999999999997
0.201
0.215
0.243
0.266
0.29100000000000004
0.295
0.29
0.27899999999999997
0.26
0.24
0.20800000000000002
0.195
0.18600000000000003
0.18600000000000003
0.183
0.17600000000000002
0.17600000000000002
0.17600000000000002
0.17600000000000002
0.18
0.18899999999999997
0.17600000000000002
0.17300000000000001
0.17600000000000002
0.17600000000000002
0.18
0.18600000000000003
0.18899999999999997
0.17
0.166
0.17600000000000002
0.17
0.17600000000000002
0.18
0.165
0.16
0.166
0.16
0.171
0.156
0.166
0.17600000000000002
0.183
0.17600000000000002
0.17600000000000002
0.17
0.17300000000000001
0.17600000000000002
0.18899999999999997
0.21100000000000002
0.258
0.25
0.33
0.359
0.33
0.27899999999999997
0.25
0.24
0.1755
0.141
0.141
0.131
0.128
0.115
0.195
0.35
0.9410000000000001
1.27
0.27899999999999997
-0.193
-0.03150000000000001
0.09
0.105
0.105
0.108
0.115
0.115
0.125
0.133
0.131
0.141
0.145
0.1475
0.156
0.141
0.15
0.171
0.17600000000000002
0.18
0.18600000000000003
0.195
0.225
0.256
0.275
0.277
0.27
0.25
0.23
0.203
0.18600000000000003
0.17
0.166
0.166
0.17600000000000002
0.17600000000000002
0.17600000000000002
0.17300000000000001
0.16
0.17
0.17600000000000002
0.17600000000000002
0.17600000000000002
0.17
0.17600000000000002
0.171
0.15
0.16
0.17
0.168
0.17600000000000002
0.17600000000000002
0.166
0.168
0.17600000000000002
0.17600000000000002
0.166
0.153
0.16
0.17
0.17600000000000002
0.17300000000000001
0.17600000000000002
0.17600000000000002
0.17
0.166
0.16
0.18899999999999997
0.23
0.248
0.285
0.336
0.34
0.3095
0.266
0.225
0.201
0.14750000000000002
0.135
0.131
0.131
0.11299999999999999
0.1
0.24600000000000002
0.48
1.1025
0.75
-0.039
-0.205
0.022
0.105
0.09
0.086
0.105
0.111
0.115
0.121
0.128
0.131
0.131
0.141
0.143
0.141
0.145
0.15
0.15
0.166
0.17600000000000002
0.18600000000000003
0.21100000000000002
0.24
0.26
0.27
0.27
0.25
0.24600000000000002
0.221
0.1985
0.17600000000000002
0.17
0.17600000000000002
0.161
0.166
0.16
0.16
0.163
0.17
0.166
0.16
0.166
0.17
0.16
0.156
0.163
0.17600000000000002
0.15
0.16
0.153
0.15
0.15
0.15
0.15
0.156
0.156
0.15
0.166
0.166
0.166
0.16
0.163
0.156
0.166
0.166
0.163
0.17600000000000002
0.17600000000000002
0.201
0.2405
0.256
0.29100000000000004
0.336
0.335
0.311
0.266
0.23
0.1975
0.15
0.135
0.125
0.121
0.125
0.111
0.21100000000000002
0.5965
1.229
0.865
0.02
-0.11699999999999999
0.07
0.105
0.111
0.108
0.105
0.111
0.105
0.118
0.135
0.131
0.141
0.145
0.156
0.16
0.166
0.17600000000000002
0.17600000000000002
0.18
0.18600000000000003
0.21100000000000002
0.23399999999999999
0.26
0.275
0.29300000000000004
0.29100000000000004
0.27
0.26
0.22449999999999998
0.201
0.18600000000000003
0.18
0.18100000000000002
0.17600000000000002
0.18
0.17600000000000002
0.17300000000000001
0.17600000000000002
0.18
0.18600000000000003
0.183
0.17600000000000002
0.17
0.17600000000000002
0.17600000000000002
0.17
0.17600000000000002
0.17
0.17300000000000001
0.166
0.166
0.166
0.171
0.17600000000000002
0.17
0.166
0.17300000000000001
0.18
0.17
0.166
0.17600000000000002
0.18899999999999997
0.18
0.18600000000000003
0.17600000000000002
0.17600000000000002
0.18
0.18899999999999997
0.2
0.23399999999999999
0.266
0.256
0.3395
0.35
0.32
0.305
0.256
0.221
0.17600000000000002
0.15
0.14250000000000002
0.125
0.131
0.135
0.21300000000000002
0.52
0.9590000000000001
1.219
0.2625
-0.18
0.02
0.096
0.115
0.125
0.121
0.111
0.125
0.131
0.145
0.145
0.155
0.156
0.166
0.166
0.163
0.17600000000000002
0.17600000000000002
0.18600000000000003
0.1905
0.21100000000000002
0.221
0.24
0.256
0.285
0.295
0.29100000000000004
0.2675
0.23399999999999999
0.221
0.21100000000000002
0.2
0.18600000000000003
0.18899999999999997
0.18899999999999997
0.195
0.18899999999999997
0.17600000000000002
0.18
0.1935
0.201
0.195
0.201
0.1935
0.17
0.17600000000000002
0.18600000000000003
0.1825
0.16
0.17600000000000002
0.18
0.17600000000000002
0.18
0.18
0.17
0.171
0.17600000000000002
0.17600000000000002
0.18600000000000003
0.168
0.17600000000000002
0.17600000000000002
0.17600000000000002
0.17300000000000001
0.18600000000000003
0.18899999999999997
0.18
0.1855
0.23
0.26
0.25
0.3095
0.34600000000000003
0.324
0.314
0.2605
0.225
0.18
0.15
0.133
0.141
0.141
0.131
0.20550000000000002
0.48
0.904
1.285
0.3805
-0.18899999999999997
-0.028999999999999998
0.07
0.113
0.105
0.105
0.105
0.118
0.135
0.141
0.131
0.136
0.156
0.15
0.156
0.158
0.166
0.16
0.17600000000000002
0.175
0.18899999999999997
0.201
0.225
0.258
0.27899999999999997
0.285
0.275
0.26
0.23
0.205
0.195
0.178
0.17
0.17600000000000002
0.17600000000000002
0.17300000000000001
0.166
0.166
0.16
0.168
0.17600000000000002
0.17600000000000002
0.17600000000000002
0.17600000000000002
0.18
0.17600000000000002
0.17600000000000002
0.17300000000000001
0.16
0.156
0.156
0.171
0.17
0.166
0.166
0.168
0.166
0.17
0.166
0.165
0.166
0.17
0.17600000000000002
0.17300000000000001
0.17600000000000002
0.17600000000000002
0.17600000000000002
0.17800000000000002
0.215
0.26
0.27
0.28200000000000003
0.34
0.336
0.32
0.2655
0.23
0.21100000000000002
0.166
0.138
0.135
0.141
0.131
0.14550000000000002
0.35
0.67
1.16
0.7745
-0.205
-0.07400000000000001
0.051
0.105
0.1
0.105
0.105
0.108
0.121
0.131
0.135
0.138
0.145
0.15
0.15
0.153
0.166
0.166
0.17
0.173
0.195
0.201
0.215
0.23550000000000001
0.275
0.29100000000000004
0.285
0.265
0.24600000000000002
0.221
0.201
0.1905
0.17600000000000002
0.17600000000000002
0.17600000000000002
0.17600000000000002
0.17600000000000002
0.17600000000000002
0.17600000000000002
0.178
0.17600000000000002
0.17600000000000002
0.17600000000000002
0.17300000000000001
0.18
0.17600000000000002
0.17600000000000002
0.17600000000000002
0.166
0.17
0.166
0.163
0.16
0.17
0.16
0.168
0.17
0.17600000000000002
0.17600000000000002
0.17300000000000001
0.17
0.17600000000000002
0.18
0.18
0.17600000000000002
0.18600000000000003
0.195
0.178
0.195
0.225
0.256
0.258
0.336
0.35
0.33
0.29000000000000004
0.23
0.21100000000000002
0.18
0.138
0.131
0.135
0.121
0.113
0.201
0.375
0.75
1.0295
0.051
-0.215
-0.039
0.082
0.115
0.105
0.105
0.121
0.115
0.121
0.111
0.128
0.131
0.15
0.156
0.143
0.15
0.156
0.156
0.171
0.18600000000000003
0.201
0.21100000000000002
0.22749999999999998
0.26
0.275
0.27899999999999997
0.268
0.26
0.23399999999999999
0.205
0.198
0.17600000000000002
0.17600000000000002
0.17600000000000002
0.175
0.17600000000000002
0.17600000000000002
0.18
0.168
0.17600000000000002
0.17600000000000002
0.17600000000000002
0.17
0.166
0.17
0.166
0.158
0.17600000000000002
0.16
0.156
0.161
0.156
0.17600000000000002
0.166
0.158
0.166
0.17
0.16
0.163
0.17600000000000002
0.17
0.17600000000000002
0.17300000000000001
0.17600000000000002
0.17
0.17600000000000002
0.178
0.21100000000000002
0.24600000000000002
0.275
0.29200000000000004
0.34600000000000003
0.34
0.33
0.2685
0.23
0.205
0.16
0.1455
0.135
0.141
0.131
0.14550000000000002
0.336
0.645
1.104
0.8145
-0.14800000000000002
-0.18
0.035
0.10750000000000001
0.105
0.125
0.131
0.131
0.131
0.131
0.131
0.1455
0.141
0.15
0.16
0.17300000000000001
0.17
0.166
0.17
0.17600000000000002
0.195
0.201
0.205
0.2375
0.266
0.295
0.285
0.26949999999999996
0.24
0.221
0.201
0.178
0.17
0.18
0.195
0.1845
0.18
0.17600000000000002
0.17600000000000002
0.178
0.17600000000000002
0.18
0.18600000000000003
0.183
0.18600000000000003
0.18600000000000003
0.18
0.178
0.17600000000000002
0.17600000000000002
0.18
0.171
0.17600000000000002
0.166
0.17600000000000002
0.171
0.17600000000000002
0.17
0.17600000000000002
0.17600000000000002
0.17
0.17600000000000002
0.17600000000000002
0.168
0.17600000000000002
0.18
0.18600000000000003
0.20199999999999999
0.24600000000000002
0.256
0.24
0.3285
0.34
0.324
0.285
0.23800000000000002
0.205
0.16
0.135
0.131
0.131
0.121
0.111
0.27999999999999997
0.721
1.215
1.273
0.023499999999999993
-0.064
0.055
0.105
0.11
0.105
0.105
0.121
0.131
0.131
0.135
0.135
0.1475
0.15
0.156
0.156
0.161
0.17600000000000002
0.17600000000000002
0.17600000000000002
0.1905
0.205
0.23
0.24600000000000002
0.265
0.285
0.27899999999999997
0.275
0.245
0.21100000000000002
0.201
0.195
0.178
0.17600000000000002
0.17600000000000002
0.18
0.171
0.17
0.17600000000000002
0.17600000000000002
0.17600000000000002
0.17
0.17600000000000002
0.17
0.171
0.17600000000000002
0.17600000000000002
0.17
0.163
0.166
0.16
0.17600000000000002
0.168
0.17
0.166
0.166
0.17
0.17
0.17600000000000002
0.166
0.178
0.17600000000000002
0.17600000000000002
0.18
0.17600000000000002
0.17600000000000002
0.17
0.17600000000000002
0.1885
0.23399999999999999
0.27
0.266
0.3205
0.365
0.34
0.324
0.253
0.225
0.195
0.16
0.143
0.141
0.135
0.145
0.178
0.436
0.85
1.254
0.413
-0.17
0.0
0.09
0.125
0.121
0.115
0.125
0.131
0.135
0.135
0.145
0.15
0.15
0.16
0.17
0.17300000000000001
0.17600000000000002
0.17600000000000002
0.18600000000000003
0.195
0.21100000000000002
0.23
0.24600000000000002
0.258
0.285
0.305
0.295
0.27249999999999996
0.24
0.225
0.205
0.198
0.18600000000000003
0.18
0.18600000000000003
0.192
0.18899999999999997
0.18899999999999997
0.18899999999999997
0.198
0.201
0.205
0.205
0.21300000000000002
0.21100000000000002
0.201
0.195
0.195
0.195
0.18
0.18600000000000003
0.183
0.18899999999999997
0.18899999999999997
0.18600000000000003
0.183
0.18600000000000003
0.18
0.18899999999999997
0.1875
0.17600000000000002
0.18899999999999997
0.195
0.18899999999999997
0.201
0.195
0.201
0.201
0.225
0.266
0.27899999999999997
0.2995
0.371
0.359
0.35
0.2905
0.24600000000000002
0.221
0.18600000000000003
0.1505
0.15
0.16
0.15
0.16050000000000003
0.32
0.596
1.055
0.8255
-0.154
-0.174
0.051
0.133
0.131
0.131
0.145
0.128
0.141
0.145
0.145
0.155
0.16
0.16
0.17
0.17600000000000002
0.18
0.18
0.18899999999999997
0.192
0.21100000000000002
0.221
0.23399999999999999
0.2675
0.285
0.295
0.311
0.28500000000000003
0.266
0.24600000000000002
0.221
0.192
0.201
0.201
0.18600000000000003
0.1875
0.18899999999999997
0.18
0.18899999999999997
0.195
0.18899999999999997
0.18600000000000003
0.18600000000000003
0.195
0.17600000000000002
0.17600000000000002
0.17600000000000002
0.17600000000000002
0.18600000000000003
0.18899999999999997
0.18
0.17600000000000002
0.17
0.166
0.17600000000000002
0.17300000000000001
0.17600000000000002
0.17600000000000002
0.17600000000000002
0.178
0.17600000000000002
0.17600000000000002
0.18600000000000003
0.178
0.18
0.17600000000000002
0.17600000000000002
0.18600000000000003
0.205
0.24600000000000002
0.27
0.27849999999999997
0.35
0.355
0.34
0.28500000000000003
0.23399999999999999
0.215
0.17
0.136
0.131
0.131
0.131
0.14550000000000002
0.27
0.529
0.9690000000000001
0.914
-0.07
-0.184
0.0
0.0955
0.111
0.111
0.111
0.12
0.135
0.135
0.135
0.143
0.145
0.156
0.16
0.16
0.166
0.17
0.17
0.183
0.18600000000000003
0.18
0.195
0.2355
0.266
0.27899999999999997
0.27
0.263
0.23399999999999999
0.225
0.21100000000000002
0.18899999999999997
0.18600000000000003
0.17
0.166
0.178
0.17600000000000002
0.17600000000000002
0.18
0.17300000000000001
0.17
0.17600000000000002
0.17600000000000002
0.183
0.17600000000000002
0.17
0.17600000000000002
0.17300000000000001
0.17600000000000002
0.17
0.166
0.168
0.16
0.16
0.166
0.163
0.166
0.17
0.17600000000000002
0.163
0.156
0.166
0.17
0.178
0.18
0.17
0.166
0.18100000000000002
0.215
0.24
0.25
0.28300000000000003
0.355
0.336
0.32
0.2655
0.225
0.201
0.15
0.133
0.131
0.131
0.135
0.15050000000000002
0.35
0.6759999999999999
1.18
0.7875
-0.18899999999999997
-0.084
0.045
0.11
0.105
0.105
0.111
0.125
0.115
0.121
0.125
0.133
0.15
0.15
0.15
0.155
0.17
0.16
0.166
0.18
0.195
0.21100000000000002
0.23
0.251
0.27
0.27899999999999997
0.275
0.27
0.24600000000000002
0.221
0.195
0.1825
0.166
0.166
0.16
0.166
0.17
0.17
0.17600000000000002
0.175
0.17600000000000002
0.17
0.17600000000000002
0.166
0.17600000000000002
0.166
0.166
0.168
0.16
0.16
0.156
0.158
0.15
0.15
0.156
0.16
0.15
0.156
0.156
0.153
0.16
0.166
0.17
0.168
0.166
0.156
0.17
0.171
0.205
0.24
0.25
0.28
0.34600000000000003
0.336
0.314
0.2575
0.225
0.195
0.15
0.131
0.125
0.121
0.131
0.1375
0.324
0.635
1.104
0.7425
-0.18899999999999997
-0.08
0.055
0.11299999999999999
0.121
0.111
0.115
0.12
0.131
0.125
0.135
0.145
0.15
0.15
0.16
0.153
0.17600000000000002
0.17600000000000002
0.18
0.1905
0.205
0.225
0.23
0.256
0.295
0.311
0.305
0.2825
0.256
0.23399999999999999
0.205
0.198
0.18600000000000003
0.17600000000000002
0.17600000000000002
0.17600000000000002
0.18
0.18600000000000003
0.17600000000000002
0.17600000000000002
0.18
0.18600000000000003
0.17600000000000002
0.178
0.17600000000000002
0.18600000000000003
0.18899999999999997
0.171
0.16
0.166
0.166
0.17300000000000001
0.17600000000000002
0.16
0.166
0.17600000000000002
0.18600000000000003
0.17600000000000002
0.17600000000000002
0.17600000000000002
0.17600000000000002
0.18
0.17600000000000002
0.166
0.17600000000000002
0.18
0.17600000000000002
0.1905
0.23399999999999999
0.26
0.26
0.3255
0.34
0.32
0.324
0.2545
0.201
0.17
0.135
0.131
0.131
0.121
0.115
0.168
0.436
0.8140000000000001
1.209
0.39549999999999996
-0.184
-0.013999999999999999
0.076
0.113
0.115
0.121
0.125
0.113
0.125
0.135
0.141
0.138
0.141
0.15
0.156
0.158
0.16
0.16
0.166
0.178
0.195
0.205
0.221
0.253
0.27
0.26
0.266
0.268
0.24
0.201
0.18600000000000003
0.18600000000000003
0.18
0.18
0.18600000000000003
0.168
0.18600000000000003
0.17600000000000002
0.17600000000000002
0.17600000000000002
0.18
0.17600000000000002
0.18
0.17800000000000002
0.17600000000000002
0.17600000000000002
0.17600000000000002
0.165
0.17600000000000002
0.17
0.17600000000000002
0.171
0.16
0.156
0.18
0.17600000000000002
0.17600000000000002
0.17600000000000002
0.166
0.17600000000000002
0.17600000000000002
0.17600000000000002
0.18600000000000003
0.178
0.17600000000000002
0.18899999999999997
0.195
0.2255
0.26
0.256
0.305
0.35050000000000003
0.336
0.295
0.256
0.22749999999999998
0.166
0.15
0.141
0.138
0.131
0.125
0.16
0.4665
1.094
1.264
0.5
-0.154
0.02
0.086
0.111
0.108
0.121
0.125
0.131
0.131
0.131
0.141
0.15
0.15
0.15
0.156
0.16
0.163
0.17600000000000002
0.17600000000000002
0.17600000000000002
0.195
0.215
0.225
0.24
0.26749999999999996
0.285
0.27899999999999997
0.26
0.23550000000000001
0.201
0.18
0.17600000000000002
0.17300000000000001
0.18
0.17600000000000002
0.17
0.168
0.17600000000000002
0.17600000000000002
0.17600000000000002
0.183
0.17
0.17
0.17600000000000002
0.183
0.18600000000000003
0.17600000000000002
0.17600000000000002
0.17300000000000001
0.17
0.16
0.17
0.17
0.166
0.17
0.16
0.166
0.16
0.156
0.166
0.16
0.166
0.17
0.17
0.166
0.17
0.18600000000000003
0.18899999999999997
0.2255
0.266
0.25
0.311
0.338
0.32
0.301
0.25
0.2145
0.156
0.145
0.145
0.133
0.125
0.111
0.16
0.48450000000000004
1.16
1.305
0.40399999999999997
-0.1815
0.031
0.096
0.111
0.111
0.105
0.111
0.115
0.123
0.125
0.125
0.135
0.1475
0.145
0.15
0.156
0.168
0.17600000000000002
0.17600000000000002
0.18600000000000003
0.2
0.215
0.225
0.24600000000000002
0.2725
0.275
0.27
0.256
0.23049999999999998
0.21100000000000002
0.195
0.18
0.17300000000000001
0.166
0.17600000000000002
0.166
0.168
0.16
0.166
0.16
0.166
0.17600000000000002
0.17600000000000002
0.17
0.166
0.17
0.17
0.17600000000000002
0.17300000000000001
0.16
0.166
0.166
0.166
0.16
0.166
0.16
0.168
0.16
0.17600000000000002
0.166
0.163
0.17
0.17
0.166
0.17
0.17
0.17600000000000002
0.17600000000000002
0.2205
0.266
0.26
0.305
0.343
0.324
0.311
0.26
0.23049999999999998
0.18
0.15
0.141
0.133
0.135
0.125
0.145
0.383
0.914
1.229
0.654
-0.124
0.016
0.09
0.125
0.121
0.121
0.131
0.131
0.133
0.145
0.145
0.15
0.161
0.17
0.166
0.166
0.178
0.17600000000000002
0.18600000000000003
0.18899999999999997
0.20800000000000002
0.225
0.23399999999999999
0.26
0.287
0.29100000000000004
0.29100000000000004
0.27
0.25
0.215
0.201
0.18899999999999997
0.18100000000000002
0.18
0.17600000000000002
0.18
0.1845
0.166
0.17
0.18
0.183
0.18899999999999997
0.18600000000000003
0.18
0.171
0.17
0.18
0.17
0.17300000000000001
0.16
0.16
0.17600000000000002
0.17600000000000002
0.17600000000000002
0.18
0.166
0.165
0.17
0.17600000000000002
0.17
0.17300000000000001
0.17
0.166
0.17
0.17600000000000002
0.17
0.17600000000000002
0.18
0.1795
0.215
0.24
0.256
0.28049999999999997
0.35
0.34
0.32
0.27249999999999996
0.221
0.201
0.17600000000000002
0.138
0.125
0.131
0.131
0.14550000000000002
0.314
0.605
1.09
0.832
-0.154
-0.18899999999999997
0.031
0.118
0.111
0.115
0.125
0.131
0.131
0.131
0.141
0.14
0.15
0.166
0.166
0.168
0.166
0.17600000000000002
0.17600000000000002
0.195
0.201
0.205
0.225
0.245
0.275
0.29100000000000004
0.27
0.27449999999999997
0.24600000000000002
0.225
0.21100000000000002
0.1905
0.201
0.195
0.18600000000000003
0.17600000000000002
0.18
0.17600000000000002
0.17600000000000002
0.18
0.18600000000000003
0.18
0.18600000000000003
0.178
0.17600000000000002
0.17600000000000002
0.17
0.18100000000000002
0.18899999999999997
0.17600000000000002
0.17
0.171
0.17600000000000002
0.17600000000000002
0.17
0.17300000000000001
0.16
0.166
0.166
0.165
0.17600000000000002
0.17600000000000002
0.17
0.171
0.18600000000000003
0.17600000000000002
0.17
0.168
0.18899999999999997
0.21100000000000002
0.24600000000000002
0.253
0.305
0.34600000000000003
0.34
0.3175
0.26
0.23399999999999999
0.21100000000000002
0.163
0.145
0.125
0.125
0.125
0.18
0.34
0.654
1.207
0.40399999999999997
-0.154
-0.18899999999999997
0.055
0.111
0.105
0.115
0.128
0.135
0.125
0.121
0.133
0.145
0.15
0.15
0.153
0.16
0.156
0.16
0.17600000000000002
0.18600000000000003
0.195
0.205
0.23550000000000001
0.25
0.27
0.27899999999999997
0.2725
0.256
0.23399999999999999
0.215
0.198
0.17600000000000002
0.17600000000000002
0.17
0.163
0.17
0.17600000000000002
0.17
0.17
0.17600000000000002
0.18
0.18600000000000003
0.17300000000000001
0.17
0.17600000000000002
0.17600000000000002
0.168
0.16
0.17
0.166
0.163
0.17
0.166
0.166
0.163
0.166
0.16
0.156
0.168
0.17600000000000002
0.17
0.17600000000000002
0.168
0.17600000000000002
0.17600000000000002
0.17600000000000002
0.17300000000000001
0.18
0.18
0.195
0.25
0.24600000000000002
0.305
0.35
0.332
0.29100000000000004
0.256
0.24
0.1925
0.145
0.131
0.125
0.133
0.125
0.17
0.32
0.875
1.273
0.381
-0.18899999999999997
-0.087
0.09
0.105
0.105
0.113
0.121
0.131
0.125
0.138
0.145
0.145
0.15
0.153
0.166
0.166
0.17
0.17600000000000002
0.17600000000000002
0.195
0.205
0.2225
0.25
0.27
0.27899999999999997
0.295
0.295
0.275
0.256
0.22749999999999998
0.21100000000000002
0.201
0.195
0.195
0.18600000000000003
0.18899999999999997
0.18
0.1845
0.18600000000000003
0.18899999999999997
0.18899999999999997
0.195
0.201
0.201
0.195
0.18899999999999997
0.195
0.18899999999999997
0.18899999999999997
0.183
0.18
0.18
0.17600000000000002
0.178
0.18600000000000003
0.18
0.17600000000000002
0.1875
0.18600000000000003
0.18899999999999997
0.18600000000000003
0.178
0.18
0.195
0.18899999999999997
0.192
0.195
0.18899999999999997
0.18899999999999997
0.195
0.21100000000000002
0.24
0.27
0.2785
0.35
0.371
0.336
0.29500000000000004
0.24600000000000002
0.23
0.195
0.155
0.135
0.141
0.145
0.136
0.221
0.395
0.775
1.085
0.096
-0.18
-0.013999999999999999
0.1135
0.141
0.125
0.131
0.133
0.141
0.15
0.156
0.16
0.16
0.156
0.16
0.18100000000000002
0.18899999999999997
0.195
0.201
0.198
0.205
0.225
0.24
0.253
0.285
0.301
0.311
0.303
0.285
0.26
0.24600000000000002
0.2225
0.201
0.201
0.195
0.201
0.18899999999999997
0.201
0.195
0.1845
0.195
0.201
0.201
0.1905
0.18
0.18
0.17600000000000002
0.183
0.18899999999999997
0.201
0.18899999999999997
0.178
0.18
0.18
0.18
0.183
0.17600000000000002
0.18600000000000003
0.18899999999999997
0.1905
0.18899999999999997
0.18600000000000003
0.17600000000000002
0.18100000000000002
0.195
0.201
0.201
0.192
0.195
0.18600000000000003
0.17600000000000002
0.20350000000000001
0.24
0.256
0.27
0.3235
0.359
0.35
0.34600000000000003
0.2705
0.23399999999999999
0.205
0.17
0.15
0.15
0.145
0.135
0.178
0.4
0.77
1.225
0.5429999999999999
-0.18899999999999997
-0.045
0.07
0.113
0.115
0.115
0.125
0.131
0.135
0.15
0.15
0.16
0.166
0.16
0.16
0.17
0.17
0.17600000000000002
0.18600000000000003
0.198
0.201
0.201
0.215
0.263
0.285
0.27899999999999997
0.27899999999999997
0.28
0.24600000000000002
0.221
0.201
0.192
0.17600000000000002
0.166
0.17600000000000002
0.178
0.195
0.18
0.17600000000000002
0.183
0.18
0.17600000000000002
0.18
0.18899999999999997
0.18
0.17600000000000002
0.17
0.1845
0.17600000000000002
0.17
0.17
0.17600000000000002
0.16
0.17
0.17600000000000002
0.17600000000000002
0.17600000000000002
0.166
0.17
0.17300000000000001
0.17600000000000002
0.18600000000000003
0.17
0.17300000000000001
0.166
0.17600000000000002
0.18
0.18
0.201
0.221
0.25
0.255
0.33
0.34600000000000003
0.33
0.2825
0.24600000000000002
0.225
0.18600000000000003
0.1405
0.125
0.131
0.135
0.13
0.275
0.516
0.965
0.9744999999999999
-0.049
-0.18899999999999997
-0.028999999999999998
0.08299999999999999
0.111
0.115
0.111
0.121
0.121
0.125
0.121
0.136
0.141
0.145
0.15
0.158
0.166
0.17
0.17600000000000002
0.168
0.18
0.18600000000000003
0.201
0.22749999999999998
0.256
0.27
0.27899999999999997
0.268
0.25
0.24
0.215
0.1935
0.17600000000000002
0.17600000000000002
0.17
0.178
0.17600000000000002
0.17600000000000002
0.17600000000000002
0.17600000000000002
0.18600000000000003
0.18
0.17600000000000002
0.178
0.18600000000000003
0.17
0.166
0.168
0.17600000000000002
0.156
0.16
0.163
0.17600000000000002
0.166
0.16
0.161
0.17
0.17
0.16
0.166
0.17600000000000002
0.17
0.16
0.163
0.17
0.166
0.17600000000000002
0.17300000000000001
0.17600000000000002
0.205
0.23399999999999999
0.251
0.314
0.336
0.324
0.29300000000000004
0.24
0.225
0.201
0.14550000000000002
0.121
0.125
0.121
0.11499999999999999
0.166
0.35
0.721
1.2275
0.18899999999999997
-0.225
-0.08
0.07050000000000001
0.1
0.1
0.105
0.10250000000000001
0.111
0.111
0.131
0.128
0.131
0.141
0.145
0.14
0.15
0.15
0.156
0.161
0.17600000000000002
0.18600000000000003
0.201
0.21800000000000003
0.24
0.266
0.27
0.27
0.26
0.23
0.205
0.1845
0.18600000000000003
0.18
0.166
0.158
0.166
0.166
0.16
0.158
0.166
0.17
0.16
0.168
0.166
0.166
0.17600000000000002
0.166
0.156
0.16
0.16
0.153
0.15
0.156
0.156
0.156
0.156
0.156
0.15
0.16
0.166
0.17
0.166
0.163
0.17600000000000002
0.17
0.17600000000000002
0.17600000000000002
0.17600000000000002
0.195
0.221
0.255
0.256
0.324
0.34
0.322
0.266
0.23
0.221
0.1755
0.125
0.125
0.131
0.133
0.125
0.195
0.375
0.9595
0.93
0.111
-0.209
0.008
0.1
0.105
0.105
0.11299999999999999
0.131
0.125
0.121
0.131
0.131
0.141
0.145
0.153
0.16
0.15
0.156
0.175
0.18899999999999997
0.201
0.215
0.225
0.24600000000000002
0.27
0.285
0.29100000000000004
0.27899999999999997
0.26
0.24
0.21100000000000002
0.18600000000000003
0.18
0.17600000000000002
0.178
0.18
0.17
0.17
0.183
0.166
0.166
0.16
0.192
0.17
0.166
0.17600000000000002
0.168
0.17600000000000002
0.17600000000000002
0.166
0.16
0.17
0.18
0.166
0.17
0.166
0.166
0.166
0.163
0.17600000000000002
0.18600000000000003
0.18
0.17600000000000002
0.17600000000000002
0.17600000000000002
0.18899999999999997
0.192
0.18600000000000003
0.18
0.17600000000000002
0.2255
0.256
0.266
0.32
0.348
0.33
0.295
0.26
0.2255
0.166
0.16
0.15
0.135
0.141
0.131
0.201
0.54
1.16
1.234
0.266
-0.12000000000000001
0.055
0.111
0.121
0.128
0.125
0.121
0.125
0.14
0.156
0.15
0.145
0.158
0.16
0.166
0.17600000000000002
0.178
0.17600000000000002
0.18
0.17600000000000002
0.20800000000000002
0.225
0.23399999999999999
0.266
0.282
0.295
0.27
0.24600000000000002
0.22
0.205
0.201
0.18
0.17300000000000001
0.166
0.17600000000000002
0.17600000000000002
0.17600000000000002
0.166
0.17
0.18600000000000003
0.1875
0.17600000000000002
0.17
0.166
0.17600000000000002
0.17
0.17
0.17600000000000002
0.17
0.16
0.166
0.17
0.158
0.156
0.166
0.17600000000000002
0.17300000000000001
0.166
0.16
0.16
0.163
0.17600000000000002
0.17600000000000002
0.17600000000000002
0.16999999999999998
0.17
0.17
0.18600000000000003
0.2175
0.25
0.24
0.301
0.341
0.32
0.301
0.256
0.22449999999999998
0.156
0.131
0.131
0.138
0.131
0.115
0.17
0.47750000000000004
1.139
1.2890000000000001
0.43
-0.1835
0.016
0.086
0.105
0.108
0.105
0.111
0.111
0.118
0.131
0.145
0.141
0.1475
0.145
0.156
0.16
0.163
0.17
0.18600000000000003
0.18600000000000003
0.2
0.215
0.225
0.25
0.2805
0.27899999999999997
0.266
0.25
0.23249999999999998
0.21100000000000002
0.195
0.18600000000000003
0.175
0.16
0.17
0.166
0.163
0.17
0.17600000000000002
0.16
0.17600000000000002
0.17600000000000002
0.17600000000000002
0.17600000000000002
0.166
0.17600000000000002
0.166
0.16
0.17
0.166
0.156
0.166
0.17300000000000001
0.16
0.156
0.16
0.166
0.156
0.16
0.156
0.17600000000000002
0.17
0.166
0.166
0.168
0.17600000000000002
0.18
0.17
0.17600000000000002
0.205
0.24
0.26
0.28200000000000003
0.34600000000000003
0.34
0.33
0.2705
0.225
0.195
0.16
0.133
0.131
0.135
0.141
0.1555
0.33
0.65
1.139
0.7875
-0.209
-0.1
0.040999999999999995
0.10550000000000001
0.115
0.105
0.111
0.118
0.131
0.131
0.131
0.136
0.15
0.156
0.156
0.153
0.17
0.17600000000000002
0.18
0.1875
0.201
0.201
0.225
0.258
0.285
0.295
0.29100000000000004
0.263
0.23399999999999999
0.225
0.201
0.1855
0.17600000000000002
0.18
0.18600000000000003
0.18
0.17
0.166
0.16
0.183
0.17600000000000002
0.17600000000000002
0.17600000000000002
0.168
0.17600000000000002
0.17600000000000002
0.17
0.17600000000000002
0.17
0.17
0.17600000000000002
0.17300000000000001
0.156
0.16
0.156
0.17300000000000001
0.166
0.166
0.17
0.17600000000000002
0.17600000000000002
0.17
0.17
0.183
0.17600000000000002
0.16
0.17600000000000002
0.1905
0.18
0.18600000000000003
0.201
0.25
0.256
0.275
0.336
0.3425
0.32
0.275
0.24600000000000002
0.2175
0.16
0.15
0.135
0.133
0.131
0.135
0.221
0.5720000000000001
1.193
0.91
0.141
-0.129
0.055
0.115
0.115
0.118
0.115
0.105
0.121
0.138
0.145
0.15
0.15
0.155
0.166
0.156
0.166
0.1825
0.18899999999999997
0.18
0.18600000000000003
0.21100000000000002
0.23
0.26
0.27
0.27449999999999997
0.295
0.275
0.25
0.2275
0.201
0.18899999999999997
0.195
0.171
0.16
0.17600000000000002
0.166
0.171
0.17600000000000002
0.18
0.17600000000000002
0.17300000000000001
0.16
0.17
0.17600000000000002
0.173
0.16
0.17600000000000002
0.166
0.158
0.166
0.17600000000000002
0.16
0.161
0.17
0.16
0.166
0.158
0.156
0.166
0.17
0.171
0.166
0.16
0.166
0.153
0.156
0.17
0.17600000000000002
0.178
0.195
0.225
0.24600000000000002
0.26949999999999996
0.34
0.314
0.311
0.2685
0.225
0.205
0.156
0.131
0.121
0.125
0.131
0.15499999999999997
0.355
0.6859999999999999
1.189
0.792
-0.18899999999999997
-0.193
0.02
0.0955
0.105
0.111
0.115
0.113
0.121
0.125
0.131
0.133
0.141
0.145
0.15
0.163
0.17
0.166
0.156
0.173
0.195
0.215
0.221
0.25
0.27899999999999997
0.27
0.27
0.2625
0.23
0.221
0.201
0.192
0.18
0.17600000000000002
0.17600000000000002
0.17600000000000002
0.17600000000000002
0.17
0.17600000000000002
0.17300000000000001
0.17600000000000002
0.166
0.17
0.17300000000000001
0.17600000000000002
0.17
0.17600000000000002
0.17300000000000001
0.17600000000000002
0.17600000000000002
0.18
0.17300000000000001
0.166
0.17
0.17
0.17600000000000002
0.17600000000000002
0.17600000000000002
0.18
0.183
0.18899999999999997
0.18
0.17600000000000002
0.178
0.17600000000000002
0.18
0.17600000000000002
0.178
0.17600000000000002
0.205
0.25
0.27449999999999997
0.311
0.35
0.34
0.3185
0.256
0.23399999999999999
0.215
0.163
0.15
0.15
0.15
0.136
0.166
0.314
0.59
1.1684999999999999
0.529
-0.16
-0.209
0.060000000000000005
0.131
0.131
0.125
0.113
0.131
0.131
0.141
0.1475
0.141
0.156
0.166
0.168
0.16
0.17
0.17600000000000002
0.18899999999999997
0.205
0.215
0.23
0.2375
0.275
0.295
0.301
0.306
0.27899999999999997
0.24600000000000002
0.24
0.213
0.195
0.18600000000000003
0.18
0.18100000000000002
0.166
0.17
0.18
0.18100000000000002
0.18
0.18
0.18600000000000003
0.1875
0.18600000000000003
0.17600000000000002
0.17600000000000002
0.17300000000000001
0.18600000000000003
0.18600000000000003
0.18
0.178
0.18600000000000003
0.18899999999999997
0.17600000000000002
0.178
0.18
0.17600000000000002
0.18600000000000003
0.1845
0.18
0.18600000000000003
0.18899999999999997
0.183
0.195
0.18899999999999997
0.18899999999999997
0.18899999999999997
0.201
0.195
0.201
0.2405
0.275
0.27
0.32
0.368
0.34
0.32
0.27
0.245
0.201
0.16
0.15
0.143
0.135
0.135
0.17
0.41000000000000003
0.9690000000000001
1.27
0.66
-0.14350000000000002
0.040999999999999995
0.115
0.141
0.138
0.135
0.15
0.145
0.138
0.141
0.145
0.17600000000000002
0.178
0.17
0.18600000000000003
0.17600000000000002
0.1795
0.201
0.205
0.221
0.2275
0.24
0.26
0.27
0.30100000000000005
0.314
0.305
0.295
0.258
0.23
0.221
0.21100000000000002
0.19699999999999998
0.18899999999999997
0.201
0.18899999999999997
0.1875
0.201
0.18899999999999997
0.18899999999999997
0.203
0.18600000000000003
0.17600000000000002
0.18899999999999997
0.195
0.18
0.18899999999999997
0.18600000000000003
0.1875
0.18899999999999997
0.18899999999999997
0.195
0.18899999999999997
0.18899999999999997
0.18600000000000003
0.18600000000000003
0.1875
0.201
0.18
0.18
0.183
0.195
0.195
0.18899999999999997
0.192
0.18
0.18600000000000003
0.201
0.20800000000000002
0.24600000000000002
0.27
0.275
0.3255
0.365
0.359
0.336
0.2625
0.23
0.195
0.17
0.14250000000000002
0.141
0.156
0.145
0.20999999999999996
0.5
0.924
1.2790000000000001
0.40750000000000003
-0.174
-0.013999999999999999
0.08
0.128
0.125
0.135
0.131
0.14250000000000002
0.16
0.156
0.16
0.166
0.16
0.17600000000000002
0.17
0.18100000000000002
0.18899999999999997
0.201
0.205
0.20600000000000002
0.221
0.24
0.26
0.285
0.295
0.29100000000000004
0.295
0.2755
0.24
0.225
0.18899999999999997
0.195
0.201
0.18899999999999997
0.195
0.192
0.18
0.18
0.18899999999999997
0.18600000000000003
0.18600000000000003
0.18899999999999997
0.195
0.178
0.18600000000000003
0.17600000000000002
0.17600000000000002
0.18100000000000002
0.18
0.17600000000000002
0.17600000000000002
0.171
0.18600000000000003
0.17600000000000002
0.17600000000000002
0.178
0.17600000000000002
0.18
0.18600000000000003
0.18100000000000002
0.17600000000000002
0.18
0.18600000000000003
0.1875
0.18
0.18600000000000003
0.18
0.1935
0.225
0.266
0.27
0.29800000000000004
0.355
0.34
0.324
0.2735
0.23399999999999999
0.205
0.17600000000000002
0.158
0.145
0.145
0.15
0.178
0.41600000000000004
0.785
1.27
0.7595000000000001
-0.184
-0.059000000000000004
0.051
0.11
0.121
0.121
0.125
0.133
0.141
0.15
0.135
0.14
0.141
0.145
0.16
0.168
0.16
0.166
0.18
0.195
0.201
0.215
0.225
0.258
0.29100000000000004
0.285
0.29100000000000004
0.2625
0.24
0.221
0.201
0.1825
0.17
0.17600000000000002
0.17
0.17300000000000001
0.17
0.16
0.166
0.17600000000000002
0.18600000000000003
0.17600000000000002
0.16
0.17600000000000002
0.17600000000000002
0.17
0.17600000000000002
0.17600000000000002
0.17
0.17
0.156
0.165
0.17
0.17
0.16
0.165
0.17600000000000002
0.17600000000000002
0.166
0.168
0.17600000000000002
0.17
0.17600000000000002
0.17600000000000002
0.17600000000000002
0.17
0.166
0.168
0.18600000000000003
0.205
0.24
0.248
0.311
0.35
0.336
0.3025
0.24600000000000002
0.23399999999999999
0.205
0.14550000000000002
0.135
0.131
0.125
0.118
0.16
0.32
0.645
1.2069999999999999
0.365
-0.205
-0.1
0.058499999999999996
0.1
0.1
0.1
0.11299999999999999
0.111
0.121
0.121
0.131
0.131
0.131
0.145
0.153
0.16
0.17
0.166
0.17600000000000002
0.195
0.195
0.221
0.225
0.25
0.275
0.27899999999999997
0.265
0.256
0.23
0.21100000000000002
0.183
0.166
0.15
0.16
0.161
0.166
0.156
0.16
0.158
0.17
0.17600000000000002
0.17600000000000002
0.168
0.18
0.18
0.17
0.178
0.16
0.156
0.16
0.161
0.141
0.135
0.15
0.161
0.166
0.15
0.156
0.165
0.17600000000000002
0.16
0.17600000000000002
0.17
0.17600000000000002
0.17600000000000002
0.17600000000000002
0.168
0.17600000000000002
0.17
0.166
0.205
0.25
0.26
0.25
0.335
0.32
0.305
0.256
0.21250000000000002
0.17600000000000002
0.15
0.125
0.123
0.111
0.105
0.125
0.3125
0.789
1.219
0.8690000000000001
-0.07100000000000001
-0.028999999999999998
0.061
0.09
0.098
0.105
0.111
0.111
0.108
0.125
0.131
0.125
0.1475
0.135
0.15
0.15
0.15
0.17
0.17600000000000002
0.18
0.195
0.205
0.215
0.25
0.277
0.275
0.266
0.275
0.247
0.205
0.201
0.18
0.18100000000000002
0.17600000000000002
0.17600000000000002
0.17600000000000002
0.17600000000000002
0.18
0.18
0.17600000000000002
0.17600000000000002
0.16
0.166
0.17600000000000002
0.1845
0.17600000000000002
0.17600000000000002
0.17600000000000002
0.166
0.17
0.17600000000000002
0.17
0.163
0.17600000000000002
0.17600000000000002
0.17
0.158
0.17
0.17600000000000002
0.166
0.17600000000000002
0.166
0.17600000000000002
0.18
0.18100000000000002
0.17600000000000002
0.18
0.18899999999999997
0.215
0.25
0.24600000000000002
0.24
0.35050000000000003
0.336
0.32
0.285
0.23800000000000002
0.205
0.156
0.145
0.1475
0.145
0.135
0.125
0.3125
0.789
1.25
0.955
-0.001999999999999988
-0.08
0.045
0.105
0.125
0.121
0.115
0.125
0.136
0.141
0.131
0.135
0.155
0.16
0.166
0.16
0.17300000000000001
0.18
0.17600000000000002
0.18600000000000003
0.1875
0.215
0.23399999999999999
0.26
0.268
0.27899999999999997
0.285
0.27
0.25
0.215
0.201
0.18
0.18
0.17600000000000002
0.17600000000000002
0.17600000000000002
0.166
0.17600000000000002
0.17600000000000002
0.18
0.17300000000000001
0.17600000000000002
0.18
0.17600000000000002
0.17300000000000001
0.18
0.18
0.17
0.178
0.17600000000000002
0.166
0.17600000000000002
0.17600000000000002
0.17600000000000002
0.17
0.17
0.171
0.17
0.17600000000000002
0.18
0.168
0.18
0.18600000000000003
0.18600000000000003
0.178
0.18600000000000003
0.18600000000000003
0.18899999999999997
0.2355
0.256
0.25
0.314
0.332
0.32
0.29100000000000004
0.24
0.21000000000000002
0.156
0.145
0.145
0.136
0.125
0.115
0.205
0.62
1.2890000000000001
0.9840000000000001
0.141
-0.132
0.051
0.105
0.111
0.1
0.105
0.121
0.125
0.123
0.135
0.131
0.15
0.1475
0.15
0.145
0.145
0.1475
0.17
0.166
0.17600000000000002
0.1935
0.221
0.24
0.266
0.277
0.27
0.25
0.23399999999999999
0.22
0.201
0.18600000000000003
0.17600000000000002
0.161
0.156
0.17600000000000002
0.18
0.17600000000000002
0.17600000000000002
0.17
0.17600000000000002
0.171
0.166
0.17600000000000002
0.17600000000000002
0.17600000000000002
0.18
0.17600000000000002
0.17
0.165
0.17
0.17600000000000002
0.17600000000000002
0.17300000000000001
0.166
0.16
0.166
0.17
0.17600000000000002
0.17600000000000002
0.17600000000000002
0.178
0.17600000000000002
0.17600000000000002
0.17600000000000002
0.17600000000000002
0.17
0.17
0.18899999999999997
0.2405
0.27
0.266
0.34600000000000003
0.3415
0.311
0.266
0.23
0.1955
0.15
0.135
0.135
0.136
0.131
0.125
0.25
0.675
1.26
0.7659999999999999
-0.039
-0.087
0.09
0.115
0.111
0.11599999999999999
0.115
0.121
0.125
0.138
0.135
0.141
0.141
0.153
0.15
0.16
0.166
0.171
0.17600000000000002
0.18899999999999997
0.195
0.20800000000000002
0.23399999999999999
0.256
0.275
0.3
0.285
0.275
0.27
0.2355
0.195
0.18899999999999997
0.18600000000000003
0.18899999999999997
0.201
0.17600000000000002
0.17
0.1825
0.195
0.18
0.17600000000000002
0.18100000000000002
0.18
0.17600000000000002
0.17600000000000002
0.17600000000000002
0.17600000000000002
0.17600000000000002
0.18899999999999997
0.178
0.17600000000000002
0.18600000000000003
0.17600000000000002
0.158
0.18
0.17600000000000002
0.17
0.17600000000000002
0.16
0.17600000000000002
0.18600000000000003
0.1825
0.18
0.17600000000000002
0.17600000000000002
0.183
0.18899999999999997
0.18899999999999997
0.18899999999999997
0.2255
0.27
0.275
0.27
0.35250000000000004
0.34600000000000003
0.32
0.285
0.245
0.18899999999999997
0.16
0.156
0.141
0.135
0.141
0.131
0.35250000000000004
0.865
1.27
0.8340000000000001
-0.05449999999999999
-0.01
0.086
0.111
0.121
0.111
0.115
0.131
0.138
0.135
0.141
0.145
0.153
0.17
0.166
0.16
0.158
0.17600000000000002
0.18
0.195
0.201
0.215
0.221
0.24
0.275
0.275
0.27
0.25
0.253
0.215
0.205
0.201
0.17600000000000002
0.17
0.18
0.17
0.171
0.17
0.17600000000000002
0.17600000000000002
0.17300000000000001
0.18
0.18600000000000003
0.17600000000000002
0.171
0.17
0.166
0.17
0.168
0.17
0.16
0.156
0.16999999999999998
0.17600000000000002
0.16
0.15
0.1525
0.166
0.16
0.166
0.171
0.156
0.16
0.17
0.168
0.16
0.17
0.166
0.21250000000000002
0.26
0.24
0.285
0.328
0.314
0.305
0.26
0.2225
0.166
0.145
0.121
0.126
0.125
0.105
0.16
0.4645
1.109
1.2790000000000001
0.48
-0.16899999999999998
0.016
0.076
0.09
0.1
0.105
0.105
0.115
0.105
0.125
0.135
0.145
0.133
0.15
0.156
0.15
0.155
0.156
0.18
0.18899999999999997
0.1905
0.215
0.225
0.24
0.2705
0.266
0.266
0.256
0.22949999999999998
0.201
0.18600000000000003
0.17
0.171
0.166
0.166
0.16
0.165
0.16
0.16
0.18
0.171
0.17
0.166
0.17
0.17300000000000001
0.16
0.156
0.17600000000000002
0.166
0.17600000000000002
0.17600000000000002
0.166
0.161
0.166
0.17
0.17600000000000002
0.163
0.17
0.17600000000000002
0.166
0.16
0.16
0.17
0.166
0.171
0.17
0.17600000000000002
0.195
0.2375
0.24
0.26
0.324
0.33
0.311
0.266
0.24
0.20199999999999999
0.145
0.131
0.125
0.128
0.121
0.115
0.225
0.657
1.2890000000000001
0.8440000000000001
-0.004
-0.116
0.064
0.1
0.105
0.0955
0.105
0.115
0.125
0.128
0.131
0.131
0.135
0.141
0.15
0.15
0.15
0.158
0.16
0.17600000000000002
0.17
0.1875
0.225
0.24600000000000002
0.266
0.27449999999999997
0.275
0.266
0.24600000000000002
0.2175
0.195
0.17600000000000002
0.17600000000000002
0.178
0.17
0.16
0.16
0.158
0.17600000000000002
0.17600000000000002
0.17
0.171
0.16
0.166
0.17
0.17600000000000002
0.16
0.156
0.16
0.178
0.17600000000000002
0.17600000000000002
0.17600000000000002
0.17600000000000002
0.17600000000000002
0.17
0.166
0.168
0.17
0.17600000000000002
0.17600000000000002
0.17300000000000001
0.17600000000000002
0.17
0.17
0.17300000000000001
0.17600000000000002
0.18600000000000003
0.201
0.245
0.275
0.27
0.305
0.348
0.324
0.305
0.266
0.23550000000000001
0.18
0.15
0.141
0.14
0.141
0.131
0.16
0.42000000000000004
1.014
1.225
0.551
-0.1545
0.025
0.096
0.125
0.126
0.121
0.125
0.125
0.133
0.141
0.15
0.15
0.15
0.156
0.15
0.16
0.18100000000000002
0.17600000000000002
0.17600000000000002
0.201
0.213
0.225
0.24600000000000002
0.27
0.295
0.295
0.295
0.27
0.251
0.221
0.205
0.201
0.175
0.18600000000000003
0.195
0.201
0.1795
0.17600000000000002
0.195
0.201
0.18
0.18899999999999997
0.18600000000000003
0.18
0.1845
0.18600000000000003
0.18
0.17600000000000002
0.1875
0.17600000000000002
0.17600000000000002
0.17600000000000002
0.171
0.18
0.18899999999999997
0.17600000000000002
0.178
0.17600000000000002
0.18600000000000003
0.17600000000000002
0.183
0.18600000000000003
0.18899999999999997
0.18
0.195
0.18600000000000003
0.18600000000000003
0.201
0.2355
0.26
0.256
0.32
0.34950000000000003
0.34
0.314
0.26
0.23800000000000002
0.18600000000000003
0.166
0.15
0.1455
0.145
0.15
0.18899999999999997
0.505
1.139
1.273
0.41
-0.1545
0.035
0.1
0.115
0.118
0.125
0.131
0.131
0.138
0.141
0.135
0.145
0.15
0.16
0.15
0.166
0.17300000000000001
0.17600000000000002
0.18
0.18
0.21
0.21100000000000002
0.24
0.25
0.268
0.275
0.27899999999999997
0.26
0.2355
0.18
0.17600000000000002
0.18
0.17600000000000002
0.18
0.166
0.156
0.161
0.17
0.17600000000000002
0.17600000000000002
0.168
0.166
0.17600000000000002
0.17600000000000002
0.178
0.17
0.16
0.17
0.166
0.15
0.156
0.15
0.17300000000000001
0.16
0.15
0.15
0.158
0.156
0.17
0.156
0.158
0.16
0.156
0.156
0.163
0.18899999999999997
0.215
0.24600000000000002
0.253
0.32
0.336
0.32
0.2825
0.23
0.215
0.17600000000000002
0.138
0.135
0.131
0.125
0.13
0.285
0.555
1.055
0.9650000000000001
-0.094
-0.19899999999999998
-0.013999999999999999
0.0785
0.111
0.105
0.111
0.10250000000000001
0.105
0.121
0.131
0.135
0.15
0.145
0.131
0.1535
0.16
0.156
0.16
0.17800000000000002
0.195
0.21100000000000002
0.225
0.2375
0.275
0.29100000000000004
0.285
0.265
0.24
0.221
0.201
0.18100000000000002
0.17
0.166
0.16
0.158
0.166
0.17
0.166
0.168
0.166
0.17600000000000002
0.17
0.171
0.17
0.16
0.17
0.17300000000000001
0.166
0.16
0.16
0.171
0.156
0.156
0.156
0.155
0.17
0.166
0.17
0.16
0.17
0.166
0.17
0.163
0.166
0.17
0.17600000000000002
0.20350000000000001
0.256
0.27
0.24600000000000002
0.33
0.33
0.32
0.27899999999999997
0.2255
0.18600000000000003
0.15
0.135
0.133
0.125
0.115
0.105
0.29
0.75
1.24
0.98
-0.03449999999999999
-0.07
0.045
0.09
0.105
0.105
0.111
0.121
0.121
0.125
0.115
0.125
0.14
0.15
0.16
0.166
0.165
0.166
0.18
0.18899999999999997
0.22050000000000003
0.24
0.215
0.24600000000000002
0.27449999999999997
0.29100000000000004
0.295
0.27
0.245
0.205
0.18
0.17
0.17300000000000001
0.166
0.17
0.15
0.17300000000000001
0.156
0.145
0.141
0.155
0.145
0.16
0.166
0.161
0.17600000000000002
0.145
0.145
0.158
0.131
0.135
0.096
0.11
0.131
0.115
0.121
0.1155
0.121
0.141
0.131
0.136
0.15
0.145
0.15
0.16999999999999998
0.21100000000000002
0.23
0.225
0.3045
0.34
0.311
0.295
0.23550000000000001
0.201
0.17
0.16
0.143
0.141
0.131
0.125
0.22749999999999998
0.555
1.004
1.215
0.1985
-0.174
0.045
0.121
0.121
0.115
0.131
0.135
0.1475
0.15
0.156
0.16
0.17
0.17600000000000002
0.17600000000000002
0.17600000000000002
0.1875
0.18899999999999997
0.18600000000000003
0.195
0.21
0.225
0.24
0.266
0.28300000000000003
0.301
0.295
0.295
0.253
0.225
0.21100000000000002
0.201
0.198
0.201
0.18899999999999997
0.17600000000000002
0.17300000000000001
0.17600000000000002
0.17
0.17600000000000002
0.17600000000000002
0.17600000000000002
0.17600000000000002
0.17600000000000002
0.17600000000000002
0.17600000000000002
0.17600000000000002
0.17600000000000002
0.17600000000000002
0.17600000000000002
0.17600000000000002
0.17600000000000002
0.17600000000000002
0.17600000000000002
0.17600000000000002
0.17
0.168
0.17600000000000002
0.16
0.17
0.20199999999999999
0.24600000000000002
0.25
0.275
0.338
0.32
0.314
0.26
0.22749999999999998
0.18600000000000003
0.145
0.131
0.131
0.135
0.131
0.141
0.33499999999999996
0.85
1.25
0.779
-0.11399999999999999
-0.02
0.09
0.131
0.133
0.131
0.131
0.135
0.158
0.156
0.156
0.15
0.171
0.166
0.16
0.16
0.18100000000000002
0.18600000000000003
0.18
0.17600000000000002
0.203
0.225
0.23399999999999999
0.25
0.27549999999999997
0.29100000000000004
0.285
0.27
0.245
0.221
0.17600000000000002
0.17
0.17
0.17600000000000002
0.17600000000000002
0.18
0.183
0.18600000000000003
0.17
0.166
0.16999999999999998
0.18899999999999997
0.18
0.17
0.175
0.17
0.166
0.17600000000000002
0.1935
0.18899999999999997
0.17600000000000002
0.166
0.166
0.18
0.17
0.18600000000000003
0.1925
0.26
0.275
0.24
0.3105
0.355
0.311
0.301
0.2355
0.205
0.17
0.141
0.123
0.131
0.121
0.111
0.21800000000000003
0.574
1.0390000000000001
1.254
0.238
-0.22899999999999998
-0.02
0.07
0.113
0.111
0.121
0.131
0.141
0.135
0.15
0.16
0.16
0.17600000000000002
0.166
0.166
0.17300000000000001
0.18600000000000003
0.18899999999999997
0.195
0.21
0.225
0.24600000000000002
0.26
0.28500000000000003
0.305
0.295
0.275
0.258
0.221
0.195
0.18
0.17600000000000002
0.17600000000000002
0.166
0.16
0.171
0.17600000000000002
0.17600000000000002
0.17600000000000002
0.17600000000000002
0.17600000000000002
0.17
0.17600000000000002
0.17600000000000002
0.17
0.166
0.17
0.17300000000000001
0.166
0.17600000000000002
0.17600000000000002
0.168
0.16
0.156
0.16
0.171
0.205
0.24
0.23399999999999999
0.28049999999999997
0.32
0.314
0.301
0.2355
0.201
0.17
0.131
0.12
0.111
0.111
0.105
0.14300000000000002
0.41
0.82
1.305
0.527
-0.23399999999999999
-0.07400000000000001
0.040999999999999995
0.093
0.086
0.096
0.105
0.108
0.115
0.121
0.131
0.121
0.131
0.135
0.141
0.143
0.15
0.15
0.166
0.18100000000000002
0.201
0.221
0.24
0.263
0.285
0.275
0.27
0.25
0.221
0.18899999999999997
0.18
0.171
0.16
0.16
0.166
0.16
0.16
0.17
0.17
0.17300000000000001
0.17600000000000002
0.17600000000000002
0.17600000000000002
0.168
0.17600000000000002
0.17
0.17600000000000002
0.17300000000000001
0.166
0.17
0.166
0.17
0.17600000000000002
0.17600000000000002
0.17
0.171
0.17
0.18
0.18
0.205
0.256
0.266
0.25
0.33999999999999997
0.324
0.314
0.27899999999999997
0.22749999999999998
0.195
0.15
0.135
0.133
0.131
0.125
0.111
0.253
0.6759999999999999
1.1840000000000002
1.2990000000000002
0.03199999999999999
-0.084
0.045
0.105
0.10250000000000001
0.105
0.115
0.125
0.128
0.131
0.135
0.135
0.14250000000000002
0.156
0.156
0.16
0.171
0.17600000000000002
0.18
0.201
0.20800000000000002
0.23399999999999999
0.25
0.256
0.2825
0.301
0.29100000000000004
0.275
0.243
0.215
0.195
0.18899999999999997
0.18600000000000003
0.17600000000000002
0.17
0.17600000000000002
0.17600000000000002
0.17600000000000002
0.18600000000000003
0.17600000000000002
0.17600000000000002
0.17
0.166
0.18
0.1855
0.17
0.17
0.17600000000000002
0.1845
0.17600000000000002
0.18
0.18
0.17600000000000002
0.18
0.18600000000000003
0.17600000000000002
0.171
0.17600000000000002
0.18
0.17600000000000002
0.18100000000000002
0.18899999999999997
0.21100000000000002
0.24
0.256
0.27899999999999997
0.336
0.34600000000000003
0.328
0.275
0.24600000000000002
0.225
0.1755
0.15
0.145
0.145
0.126
0.115
0.24
0.455
1.0915
0.924
0.086
-0.215
0.009500000000000001
0.105
0.115
0.105
0.11
0.125
0.135
0.131
0.138
0.141
0.15
0.156
0.16
0.166
0.16
0.166
0.1845
0.18
0.18600000000000003
0.18
0.23550000000000001
0.266
0.27899999999999997
0.29100000000000004
0.2725
0.26
0.24600000000000002
0.215
0.195
0.201
0.18
0.166
0.163
0.17
0.17600000000000002
0.17600000000000002
0.175
0.18600000000000003
0.18899999999999997
0.18
0.17600000000000002
0.18
0.18
0.18600000000000003
0.18100000000000002
0.17600000000000002
0.18
